# population in each left-qubit level over  time for $\ket{\Psi(t=0)} = \ket{00}$ (integrated over all cavity levels)
#        t [ns]            0            1            2            3            4
       0.000000  1.00000E+00  0.00000E+00  0.00000E+00  0.00000E+00  0.00000E+00
       0.025013  1.00000E+00  3.38879E-14  5.74140E-28  6.48601E-42  0.00000E+00
       0.050025  1.00000E+00  4.65749E-12  1.08447E-23  1.68324E-35  8.14147E-48
       0.075038  1.00000E+00  1.01050E-10  5.10422E-21  1.71774E-31  3.11126E-42
       0.100050  1.00000E+00  9.25433E-10  4.28024E-19  1.31823E-28  2.11619E-38
       0.125063  1.00000E+00  5.17467E-09  1.33794E-17  2.30198E-26  1.91803E-35
       0.150075  1.00000E+00  2.10429E-08  2.21185E-16  1.54583E-24  4.84245E-33
       0.175088  1.00000E+00  6.85021E-08  2.34315E-15  5.32394E-23  5.02103E-31
       0.200100  1.00000E+00  1.89211E-07  1.78694E-14  1.11975E-21  2.70016E-29
       0.225113  1.00000E+00  4.60553E-07  1.05823E-13  1.61126E-20  8.76335E-28
       0.250125  9.99999E-01  1.01391E-06  5.12623E-13  1.71494E-19  1.90448E-26
       0.275138  9.99998E-01  2.05681E-06  2.10833E-12  1.42767E-18  2.98533E-25
       0.300150  9.99996E-01  3.89800E-06  7.56770E-12  9.68825E-18  3.56605E-24
       0.325163  9.99993E-01  6.97421E-06  2.42089E-11  5.53029E-17  3.38449E-23
       0.350175  9.99988E-01  1.18766E-05  7.01534E-11  2.72111E-16  2.63630E-22
       0.375188  9.99980E-01  1.93747E-05  1.86549E-10  1.17666E-15  1.72917E-21
       0.400200  9.99969E-01  3.04361E-05  4.59969E-10  4.54187E-15  9.74968E-21
       0.425213  9.99953E-01  4.62375E-05  1.06059E-09  1.58502E-14  4.80575E-20
       0.450225  9.99931E-01  6.81683E-05  2.30305E-09  5.05391E-14  2.09982E-19
       0.475238  9.99901E-01  9.78202E-05  4.73752E-09  1.48538E-13  8.22775E-19
       0.500250  9.99862E-01  1.36965E-04  9.27780E-09  4.05409E-13  2.91933E-18
       0.525263  9.99811E-01  1.87518E-04  1.73708E-08  1.03405E-12  9.45739E-18
       0.550275  9.99747E-01  2.51488E-04  3.12069E-08  2.47816E-12  2.81709E-17
       0.575288  9.99667E-01  3.30910E-04  5.39630E-08  5.60657E-12  7.76237E-17
       0.600300  9.99570E-01  4.27774E-04  9.00618E-08  1.20229E-11  1.98893E-16
       0.625313  9.99453E-01  5.43937E-04  1.45419E-07  2.45250E-11  4.76046E-16
       0.650325  9.99316E-01  6.81039E-04  2.27644E-07  4.77381E-11  1.06858E-15
       0.675338  9.99156E-01  8.40414E-04  3.46147E-07  8.89178E-11  2.25746E-15
       0.700350  9.98972E-01  1.02301E-03  5.12118E-07  1.58880E-10  4.50248E-15
       0.725363  9.98765E-01  1.22934E-03  7.38336E-07  2.72954E-10  8.50233E-15
       0.750375  9.98534E-01  1.45939E-03  1.03879E-06  4.51813E-10  1.52409E-14
       0.775388  9.98280E-01  1.71266E-03  1.42810E-06  7.21963E-10  2.59973E-14
       0.800400  9.98003E-01  1.98810E-03  1.92083E-06  1.11570E-09  4.22955E-14
       0.825413  9.97706E-01  2.28419E-03  2.53062E-06  1.67033E-09  6.57762E-14
       0.850425  9.97389E-01  2.59894E-03  3.26935E-06  2.42659E-09  9.79917E-14
       0.875438  9.97057E-01  2.93000E-03  4.14634E-06  3.42629E-09  1.40144E-13
       0.900450  9.96711E-01  3.27470E-03  5.16765E-06  4.70934E-09  1.92815E-13
       0.925463  9.96353E-01  3.63019E-03  6.33561E-06  6.31050E-09  2.55736E-13
       0.950475  9.95988E-01  3.99348E-03  7.64864E-06  8.25631E-09  3.27679E-13
       0.975488  9.95618E-01  4.36158E-03  9.10131E-06  1.05626E-08  4.06483E-13
       1.000500  9.95246E-01  4.73156E-03  1.06847E-05  1.32327E-08  4.89251E-13
       1.025513  9.94875E-01  5.10065E-03  1.23868E-05  1.62578E-08  5.72675E-13
       1.050525  9.94507E-01  5.46630E-03  1.41940E-05  1.96172E-08  6.53458E-13
       1.075538  9.94144E-01  5.82624E-03  1.60909E-05  2.32812E-08  7.28729E-13
       1.100550  9.93790E-01  6.17855E-03  1.80626E-05  2.72146E-08  7.96403E-13
       1.125563  9.93444E-01  6.52164E-03  2.00947E-05  3.13797E-08  8.55423E-13
       1.150575  9.93109E-01  6.85432E-03  2.21745E-05  3.57415E-08  9.05843E-13
       1.175588  9.92785E-01  7.17575E-03  2.42921E-05  4.02703E-08  9.48769E-13
       1.200600  9.92473E-01  7.48548E-03  2.64403E-05  4.49453E-08  9.86182E-13
       1.225613  9.92173E-01  7.78340E-03  2.86155E-05  4.97564E-08  1.02068E-12
       1.250625  9.91884E-01  8.06972E-03  3.08176E-05  5.47050E-08  1.05522E-12
       1.275638  9.91607E-01  8.34492E-03  3.30498E-05  5.98040E-08  1.09282E-12
       1.300650  9.91339E-01  8.60972E-03  3.53187E-05  6.50769E-08  1.13643E-12
       1.325663  9.91082E-01  8.86504E-03  3.76336E-05  7.05563E-08  1.18871E-12
       1.350675  9.90832E-01  9.11196E-03  4.00068E-05  7.62815E-08  1.25205E-12
       1.375688  9.90590E-01  9.35168E-03  4.24522E-05  8.22971E-08  1.32852E-12
       1.400700  9.90353E-01  9.58549E-03  4.49858E-05  8.86500E-08  1.41993E-12
       1.425713  9.90121E-01  9.81472E-03  4.76248E-05  9.53884E-08  1.52791E-12
       1.450725  9.89892E-01  1.00408E-02  5.03875E-05  1.02559E-07  1.65402E-12
       1.475738  9.89665E-01  1.02650E-02  5.32932E-05  1.10207E-07  1.79983E-12
       1.500750  9.89438E-01  1.04889E-02  5.63615E-05  1.18373E-07  1.96705E-12
       1.525763  9.89209E-01  1.07138E-02  5.96129E-05  1.27093E-07  2.15757E-12
       1.550775  9.88978E-01  1.09411E-02  6.30678E-05  1.36398E-07  2.37355E-12
       1.575788  9.88743E-01  1.11721E-02  6.67473E-05  1.46314E-07  2.61745E-12
       1.600800  9.88503E-01  1.14083E-02  7.06725E-05  1.56856E-07  2.89201E-12
       1.625813  9.88256E-01  1.16508E-02  7.48647E-05  1.68037E-07  3.20023E-12
       1.650825  9.88001E-01  1.19010E-02  7.93453E-05  1.79861E-07  3.54530E-12
       1.675838  9.87737E-01  1.21600E-02  8.41356E-05  1.92324E-07  3.93051E-12
       1.700850  9.87463E-01  1.24290E-02  8.92570E-05  2.05418E-07  4.35911E-12
       1.725863  9.87177E-01  1.27089E-02  9.47304E-05  2.19129E-07  4.83417E-12
       1.750875  9.86879E-01  1.30007E-02  1.00577E-04  2.33441E-07  5.35843E-12
       1.775888  9.86568E-01  1.33053E-02  1.06816E-04  2.48336E-07  5.93416E-12
       1.800900  9.86243E-01  1.36232E-02  1.13469E-04  2.63799E-07  6.56308E-12
       1.825913  9.85904E-01  1.39550E-02  1.20555E-04  2.79819E-07  7.24624E-12
       1.850925  9.85549E-01  1.43012E-02  1.28092E-04  2.96394E-07  7.98408E-12
       1.875938  9.85180E-01  1.46620E-02  1.36098E-04  3.13534E-07  8.77647E-12
       1.900950  9.84796E-01  1.50374E-02  1.44592E-04  3.31264E-07  9.62288E-12
       1.925963  9.84396E-01  1.54276E-02  1.53591E-04  3.49628E-07  1.05226E-11
       1.950975  9.83982E-01  1.58321E-02  1.63110E-04  3.68692E-07  1.14749E-11
       1.975988  9.83552E-01  1.62509E-02  1.73167E-04  3.88548E-07  1.24798E-11
       2.001001  9.83109E-01  1.66835E-02  1.83778E-04  4.09310E-07  1.35377E-11
       2.026013  9.82651E-01  1.71294E-02  1.94958E-04  4.31122E-07  1.46505E-11
       2.051026  9.82180E-01  1.75880E-02  2.06724E-04  4.54153E-07  1.58214E-11
       2.076038  9.81696E-01  1.80588E-02  2.19091E-04  4.78603E-07  1.70556E-11
       2.101051  9.81201E-01  1.85411E-02  2.32079E-04  5.04695E-07  1.83604E-11
       2.126063  9.80693E-01  1.90344E-02  2.45704E-04  5.32679E-07  1.97449E-11
       2.151076  9.80175E-01  1.95380E-02  2.59985E-04  5.62826E-07  2.12202E-11
       2.176088  9.79646E-01  2.00515E-02  2.74942E-04  5.95425E-07  2.27994E-11
       2.201101  9.79106E-01  2.05743E-02  2.90595E-04  6.30779E-07  2.44969E-11
       2.226113  9.78558E-01  2.11061E-02  3.06964E-04  6.69199E-07  2.63287E-11
       2.251126  9.78000E-01  2.16464E-02  3.24071E-04  7.10999E-07  2.83114E-11
       2.276138  9.77432E-01  2.21950E-02  3.41933E-04  7.56491E-07  3.04618E-11
       2.301151  9.76856E-01  2.27518E-02  3.60572E-04  8.05976E-07  3.27963E-11
       2.326163  9.76272E-01  2.33165E-02  3.80003E-04  8.59735E-07  3.53299E-11
       2.351176  9.75678E-01  2.38891E-02  4.00241E-04  9.18026E-07  3.80753E-11
       2.376188  9.75076E-01  2.44694E-02  4.21298E-04  9.81071E-07  4.10423E-11
       2.401201  9.74465E-01  2.50573E-02  4.43181E-04  1.04905E-06  4.42364E-11
       2.426213  9.73846E-01  2.56528E-02  4.65892E-04  1.12209E-06  4.76580E-11
       2.451226  9.73219E-01  2.62555E-02  4.89428E-04  1.20026E-06  5.13016E-11
       2.476238  9.72585E-01  2.68652E-02  5.13780E-04  1.28357E-06  5.51553E-11
       2.501251  9.71942E-01  2.74816E-02  5.38934E-04  1.37194E-06  5.91997E-11
       2.526263  9.71293E-01  2.81041E-02  5.64869E-04  1.46525E-06  6.34086E-11
       2.551276  9.70638E-01  2.87321E-02  5.91557E-04  1.56328E-06  6.77487E-11
       2.576288  9.69977E-01  2.93649E-02  6.18965E-04  1.66573E-06  7.21800E-11
       2.601301  9.69311E-01  3.00016E-02  6.47055E-04  1.77224E-06  7.66575E-11
       2.626313  9.68642E-01  3.06412E-02  6.75785E-04  1.88238E-06  8.11314E-11
       2.651326  9.67970E-01  3.12826E-02  7.05106E-04  1.99566E-06  8.55499E-11
       2.676338  9.67297E-01  3.19247E-02  7.34968E-04  2.11153E-06  8.98596E-11
       2.701351  9.66625E-01  3.25662E-02  7.65319E-04  2.22940E-06  9.40086E-11
       2.726363  9.65954E-01  3.32057E-02  7.96105E-04  2.34864E-06  9.79473E-11
       2.751376  9.65285E-01  3.38420E-02  8.27271E-04  2.46862E-06  1.01631E-10
       2.776388  9.64621E-01  3.44737E-02  8.58762E-04  2.58868E-06  1.05019E-10
       2.801401  9.63963E-01  3.50995E-02  8.90528E-04  2.70817E-06  1.08080E-10
       2.826413  9.63312E-01  3.57179E-02  9.22517E-04  2.82646E-06  1.10788E-10
       2.851426  9.62669E-01  3.63278E-02  9.54683E-04  2.94295E-06  1.13126E-10
       2.876438  9.62036E-01  3.69279E-02  9.86981E-04  3.05707E-06  1.15084E-10
       2.901451  9.61414E-01  3.75170E-02  1.01937E-03  3.16831E-06  1.16660E-10
       2.926463  9.60803E-01  3.80941E-02  1.05182E-03  3.27618E-06  1.17858E-10
       2.951476  9.60206E-01  3.86580E-02  1.08430E-03  3.38029E-06  1.18687E-10
       2.976488  9.59623E-01  3.92079E-02  1.11678E-03  3.48027E-06  1.19161E-10
       3.001501  9.59055E-01  3.97428E-02  1.14925E-03  3.57585E-06  1.19298E-10
       3.026513  9.58503E-01  4.02619E-02  1.18168E-03  3.66679E-06  1.19117E-10
       3.051526  9.57967E-01  4.07645E-02  1.21407E-03  3.75291E-06  1.18638E-10
       3.076538  9.57449E-01  4.12499E-02  1.24640E-03  3.83411E-06  1.17882E-10
       3.101551  9.56948E-01  4.17174E-02  1.27867E-03  3.91030E-06  1.16867E-10
       3.126563  9.56466E-01  4.21666E-02  1.31088E-03  3.98147E-06  1.15613E-10
       3.151576  9.56003E-01  4.25969E-02  1.34304E-03  4.04762E-06  1.14136E-10
       3.176588  9.55560E-01  4.30077E-02  1.37513E-03  4.10878E-06  1.12452E-10
       3.201601  9.55136E-01  4.33988E-02  1.40716E-03  4.16501E-06  1.10573E-10
       3.226613  9.54732E-01  4.37696E-02  1.43913E-03  4.21638E-06  1.08510E-10
       3.251626  9.54350E-01  4.41199E-02  1.47105E-03  4.26298E-06  1.06275E-10
       3.276638  9.53988E-01  4.44493E-02  1.50290E-03  4.30488E-06  1.03876E-10
       3.301651  9.53647E-01  4.47575E-02  1.53469E-03  4.34216E-06  1.01322E-10
       3.326663  9.53328E-01  4.50442E-02  1.56642E-03  4.37492E-06  9.86203E-11
       3.351676  9.53031E-01  4.53093E-02  1.59807E-03  4.40321E-06  9.57804E-11
       3.376688  9.52756E-01  4.55525E-02  1.62963E-03  4.42711E-06  9.28112E-11
       3.401701  9.52502E-01  4.57736E-02  1.66110E-03  4.44668E-06  8.97223E-11
       3.426713  9.52271E-01  4.59726E-02  1.69245E-03  4.46196E-06  8.65249E-11
       3.451726  9.52063E-01  4.61494E-02  1.72368E-03  4.47301E-06  8.32309E-11
       3.476738  9.51877E-01  4.63039E-02  1.75476E-03  4.47986E-06  7.98539E-11
       3.501751  9.51713E-01  4.64363E-02  1.78567E-03  4.48256E-06  7.64083E-11
       3.526763  9.51572E-01  4.65464E-02  1.81638E-03  4.48114E-06  7.29099E-11
       3.551776  9.51452E-01  4.66346E-02  1.84688E-03  4.47565E-06  6.93753E-11
       3.576788  9.51355E-01  4.67008E-02  1.87715E-03  4.46616E-06  6.58217E-11
       3.601801  9.51280E-01  4.67455E-02  1.90716E-03  4.45272E-06  6.22666E-11
       3.626813  9.51227E-01  4.67688E-02  1.93689E-03  4.43541E-06  5.87278E-11
       3.651826  9.51195E-01  4.67710E-02  1.96632E-03  4.41434E-06  5.52222E-11
       3.676838  9.51183E-01  4.67526E-02  1.99544E-03  4.38962E-06  5.17666E-11
       3.701851  9.51193E-01  4.67140E-02  2.02422E-03  4.36138E-06  4.83765E-11
       3.726863  9.51222E-01  4.66556E-02  2.05266E-03  4.32980E-06  4.50660E-11
       3.751876  9.51271E-01  4.65780E-02  2.08075E-03  4.29504E-06  4.18480E-11
       3.776888  9.51339E-01  4.64817E-02  2.10847E-03  4.25733E-06  3.87338E-11
       3.801901  9.51426E-01  4.63674E-02  2.13584E-03  4.21688E-06  3.57327E-11
       3.826913  9.51530E-01  4.62355E-02  2.16285E-03  4.17395E-06  3.28528E-11
       3.851926  9.51652E-01  4.60869E-02  2.18950E-03  4.12881E-06  3.01004E-11
       3.876938  9.51790E-01  4.59221E-02  2.21580E-03  4.08174E-06  2.74804E-11
       3.901951  9.51944E-01  4.57419E-02  2.24176E-03  4.03304E-06  2.49965E-11
       3.926963  9.52113E-01  4.55469E-02  2.26740E-03  3.98303E-06  2.26515E-11
       3.951976  9.52296E-01  4.53378E-02  2.29274E-03  3.93202E-06  2.04473E-11
       3.976988  9.52493E-01  4.51153E-02  2.31778E-03  3.88034E-06  1.83853E-11
       4.002001  9.52703E-01  4.48801E-02  2.34256E-03  3.82831E-06  1.64664E-11
       4.027014  9.52925E-01  4.46329E-02  2.36710E-03  3.77626E-06  1.46913E-11
       4.052026  9.53159E-01  4.43744E-02  2.39142E-03  3.72450E-06  1.30605E-11
       4.077039  9.53404E-01  4.41051E-02  2.41555E-03  3.67335E-06  1.15744E-11
       4.102051  9.53659E-01  4.38258E-02  2.43952E-03  3.62309E-06  1.02334E-11
       4.127064  9.53924E-01  4.35369E-02  2.46336E-03  3.57402E-06  9.03765E-12
       4.152076  9.54197E-01  4.32391E-02  2.48710E-03  3.52639E-06  7.98708E-12
       4.177089  9.54480E-01  4.29329E-02  2.51077E-03  3.48044E-06  7.08138E-12
       4.202101  9.54770E-01  4.26188E-02  2.53440E-03  3.43639E-06  6.31980E-12
       4.227114  9.55067E-01  4.22971E-02  2.55804E-03  3.39443E-06  5.70113E-12
       4.252126  9.55372E-01  4.19683E-02  2.58172E-03  3.35472E-06  5.22354E-12
       4.277139  9.55684E-01  4.16327E-02  2.60548E-03  3.31736E-06  4.88458E-12
       4.302151  9.56001E-01  4.12906E-02  2.62935E-03  3.28242E-06  4.68111E-12
       4.327164  9.56325E-01  4.09423E-02  2.65339E-03  3.24993E-06  4.60926E-12
       4.352176  9.56655E-01  4.05879E-02  2.67763E-03  3.21983E-06  4.66450E-12
       4.377189  9.56991E-01  4.02275E-02  2.70213E-03  3.19203E-06  4.84160E-12
       4.402201  9.57332E-01  3.98614E-02  2.72691E-03  3.16634E-06  5.13469E-12
       4.427214  9.57678E-01  3.94895E-02  2.75204E-03  3.14251E-06  5.53728E-12
       4.452226  9.58030E-01  3.91119E-02  2.77755E-03  3.12020E-06  6.04227E-12
       4.477239  9.58387E-01  3.87286E-02  2.80350E-03  3.09898E-06  6.64194E-12
       4.502251  9.58749E-01  3.83396E-02  2.82991E-03  3.07835E-06  7.32794E-12
       4.527264  9.59116E-01  3.79448E-02  2.85683E-03  3.05773E-06  8.09116E-12
       4.552276  9.59489E-01  3.75443E-02  2.88429E-03  3.03645E-06  8.92170E-12
       4.577289  9.59867E-01  3.71379E-02  2.91232E-03  3.01379E-06  9.80868E-12
       4.602301  9.60250E-01  3.67257E-02  2.94094E-03  2.98897E-06  1.07402E-11
       4.627314  9.60639E-01  3.63077E-02  2.97017E-03  2.96117E-06  1.17030E-11
       4.652326  9.61032E-01  3.58838E-02  3.00001E-03  2.92958E-06  1.26827E-11
       4.677339  9.61431E-01  3.54541E-02  3.03045E-03  2.89339E-06  1.36635E-11
       4.702351  9.61835E-01  3.50186E-02  3.06148E-03  2.85181E-06  1.46280E-11
       4.727364  9.62245E-01  3.45774E-02  3.09306E-03  2.80414E-06  1.55579E-11
       4.752376  9.62659E-01  3.41307E-02  3.12517E-03  2.74976E-06  1.64338E-11
       4.777389  9.63078E-01  3.36786E-02  3.15776E-03  2.68818E-06  1.72353E-11
       4.802401  9.63502E-01  3.32214E-02  3.19075E-03  2.61905E-06  1.79421E-11
       4.827414  9.63930E-01  3.27592E-02  3.22407E-03  2.54222E-06  1.85341E-11
       4.852426  9.64363E-01  3.22925E-02  3.25765E-03  2.45771E-06  1.89923E-11
       4.877439  9.64800E-01  3.18214E-02  3.29139E-03  2.36578E-06  1.92994E-11
       4.902451  9.65241E-01  3.13465E-02  3.32519E-03  2.26691E-06  1.94406E-11
       4.927464  9.65685E-01  3.08682E-02  3.35894E-03  2.16182E-06  1.94046E-11
       4.952476  9.66133E-01  3.03869E-02  3.39253E-03  2.05146E-06  1.91842E-11
       4.977489  9.66583E-01  2.99031E-02  3.42584E-03  1.93701E-06  1.87771E-11
       5.002501  9.67035E-01  2.94175E-02  3.45875E-03  1.81986E-06  1.81862E-11
       5.027514  9.67490E-01  2.89305E-02  3.49114E-03  1.70161E-06  1.74205E-11
       5.052526  9.67945E-01  2.84427E-02  3.52290E-03  1.58400E-06  1.64949E-11
       5.077539  9.68402E-01  2.79549E-02  3.55390E-03  1.46891E-06  1.54305E-11
       5.102551  9.68859E-01  2.74677E-02  3.58405E-03  1.35832E-06  1.42540E-11
       5.127564  9.69315E-01  2.69816E-02  3.61323E-03  1.25423E-06  1.29975E-11
       5.152576  9.69771E-01  2.64974E-02  3.64134E-03  1.15867E-06  1.16974E-11
       5.177589  9.70225E-01  2.60157E-02  3.66831E-03  1.07361E-06  1.03939E-11
       5.202601  9.70678E-01  2.55372E-02  3.69404E-03  1.00097E-06  9.12901E-12
       5.227614  9.71128E-01  2.50625E-02  3.71847E-03  9.42497E-07  7.94602E-12
       5.252626  9.71575E-01  2.45922E-02  3.74153E-03  8.99807E-07  6.88752E-12
       5.277639  9.72018E-01  2.41268E-02  3.76318E-03  8.74311E-07  5.99420E-12
       5.302651  9.72457E-01  2.36670E-02  3.78337E-03  8.67201E-07  5.30348E-12
       5.327664  9.72892E-01  2.32131E-02  3.80207E-03  8.79431E-07  4.84837E-12
       5.352676  9.73321E-01  2.27658E-02  3.81926E-03  9.11700E-07  4.65651E-12
       5.377689  9.73746E-01  2.23253E-02  3.83491E-03  9.64455E-07  4.74956E-12
       5.402701  9.74164E-01  2.18920E-02  3.84903E-03  1.03788E-06  5.14290E-12
       5.427714  9.74577E-01  2.14662E-02  3.86159E-03  1.13193E-06  5.84562E-12
       5.452726  9.74984E-01  2.10482E-02  3.87262E-03  1.24629E-06  6.86092E-12
       5.477739  9.75384E-01  2.06380E-02  3.88210E-03  1.38044E-06  8.18675E-12
       5.502751  9.75777E-01  2.02358E-02  3.89006E-03  1.53368E-06  9.81669E-12
       5.527764  9.76165E-01  1.98417E-02  3.89648E-03  1.70508E-06  1.17410E-11
       5.552776  9.76545E-01  1.94555E-02  3.90139E-03  1.89357E-06  1.39480E-11
       5.577789  9.76919E-01  1.90772E-02  3.90478E-03  2.09794E-06  1.64249E-11
       5.602801  9.77287E-01  1.87067E-02  3.90667E-03  2.31684E-06  1.91593E-11
       5.627814  9.77649E-01  1.83438E-02  3.90705E-03  2.54883E-06  2.21401E-11
       5.652826  9.78005E-01  1.79881E-02  3.90594E-03  2.79236E-06  2.53586E-11
       5.677839  9.78356E-01  1.76394E-02  3.90332E-03  3.04581E-06  2.88091E-11
       5.702851  9.78702E-01  1.72974E-02  3.89919E-03  3.30751E-06  3.24895E-11
       5.727864  9.79042E-01  1.69617E-02  3.89355E-03  3.57572E-06  3.64015E-11
       5.752876  9.79379E-01  1.66319E-02  3.88638E-03  3.84869E-06  4.05509E-11
       5.777889  9.79711E-01  1.63075E-02  3.87767E-03  4.12461E-06  4.49475E-11
       5.802901  9.80040E-01  1.59881E-02  3.86741E-03  4.40170E-06  4.96045E-11
       5.827914  9.80366E-01  1.56733E-02  3.85558E-03  4.67815E-06  5.45386E-11
       5.852926  9.80689E-01  1.53627E-02  3.84215E-03  4.95220E-06  5.97685E-11
       5.877939  9.81010E-01  1.50558E-02  3.82713E-03  5.22211E-06  6.53151E-11
       5.902951  9.81330E-01  1.47521E-02  3.81048E-03  5.48621E-06  7.11997E-11
       5.927964  9.81648E-01  1.44515E-02  3.79219E-03  5.74292E-06  7.74436E-11
       5.952976  9.81966E-01  1.41534E-02  3.77226E-03  5.99075E-06  8.40666E-11
       5.977989  9.82282E-01  1.38577E-02  3.75067E-03  6.22836E-06  9.10861E-11
       6.003002  9.82598E-01  1.35640E-02  3.72742E-03  6.45454E-06  9.85157E-11
       6.028014  9.82915E-01  1.32722E-02  3.70250E-03  6.66829E-06  1.06365E-10
       6.053027  9.83230E-01  1.29821E-02  3.67594E-03  6.86879E-06  1.14637E-10
       6.078039  9.83546E-01  1.26938E-02  3.64774E-03  7.05546E-06  1.23329E-10
