# population in each cavity level over  time for $\ket{\Psi(t=0)} = \ket{00}$ (integrated over all qubit levels)
#        t [ns]            0            1            2            3            4            5
       0.000000  1.00000E+00  0.00000E+00  0.00000E+00  0.00000E+00  0.00000E+00  0.00000E+00
       0.025013  1.00000E+00  1.11992E-09  6.27113E-19  2.34106E-28  6.55449E-38  1.14469E-47
       0.050025  1.00000E+00  1.05883E-07  5.60560E-15  1.97846E-22  5.23712E-30  8.41132E-38
       0.075038  9.99999E-01  1.23144E-06  7.58223E-13  3.11236E-19  9.58171E-26  1.66746E-32
       0.100050  9.99993E-01  6.72428E-06  2.26081E-11  5.06748E-17  8.51886E-23  7.49872E-29
       0.125063  9.99975E-01  2.45397E-05  3.01105E-10  2.46307E-15  1.51111E-20  4.48694E-26
       0.150075  9.99930E-01  6.95514E-05  2.41886E-09  5.60824E-14  9.75224E-19  7.57867E-24
       0.175088  9.99834E-01  1.65590E-04  1.37122E-08  7.56993E-13  3.13432E-17  5.35261E-22
       0.200100  9.99653E-01  3.46854E-04  6.01749E-08  6.95972E-12  6.03732E-16  1.99297E-20
       0.225113  9.99341E-01  6.58414E-04  2.16897E-07  4.76342E-11  7.84646E-15  4.53677E-19
       0.250125  9.98844E-01  1.15558E-03  6.68453E-07  2.57781E-10  7.45675E-14  6.98103E-18
       0.275138  9.98096E-01  1.90202E-03  1.81229E-06  1.15120E-09  5.48570E-13  7.79660E-17
       0.300150  9.97029E-01  2.96666E-03  4.41364E-06  4.37759E-09  3.25760E-12  6.65788E-16
       0.325163  9.95571E-01  4.41935E-03  9.80878E-06  1.45138E-08  1.61162E-11  4.52117E-15
       0.350175  9.93654E-01  6.32573E-03  2.01352E-05  4.27278E-08  6.80631E-11  2.51627E-14
       0.375188  9.91220E-01  8.74145E-03  3.85449E-05  1.13308E-07  2.50131E-10  1.17522E-13
       0.400200  9.88224E-01  1.17063E-02  6.93355E-05  2.73778E-07  8.12223E-10  4.69328E-13
       0.425213  9.84642E-01  1.52389E-02  1.17924E-04  6.08350E-07  2.35944E-09  1.62693E-12
       0.450225  9.80475E-01  1.93322E-02  1.90588E-04  1.25261E-06  6.19381E-09  4.95544E-12
       0.475238  9.75753E-01  2.39504E-02  2.93939E-04  2.40494E-06  1.48163E-08  1.33940E-11
       0.500250  9.70533E-01  2.90281E-02  4.34107E-04  4.32790E-06  3.25203E-08  3.23856E-11
       0.525263  9.64905E-01  3.44709E-02  6.15730E-04  7.33211E-06  6.58716E-08  7.05130E-11
       0.550275  9.58987E-01  4.01587E-02  8.40846E-04  1.17369E-05  1.23726E-07  1.38995E-10
       0.575288  9.52922E-01  4.59506E-02  1.10788E-03  1.78072E-05  2.16367E-07  2.49160E-10
       0.600300  9.46870E-01  5.16913E-02  1.41096E-03  2.56749E-05  3.53481E-07  4.07706E-10
       0.625313  9.41003E-01  5.72191E-02  1.73964E-03  3.52599E-05  5.41042E-07  6.11080E-10
       0.650325  9.35497E-01  6.23739E-02  2.07938E-03  4.62138E-05  7.77779E-07  8.41882E-10
       0.675338  9.30519E-01  6.70057E-02  2.41250E-03  5.79089E-05  1.05238E-06  1.07056E-09
       0.700350  9.26223E-01  7.09820E-02  2.71988E-03  6.94854E-05  1.34280E-06  1.26364E-09
       0.725363  9.22737E-01  7.41941E-02  2.98284E-03  7.99579E-05  1.61856E-06  1.39587E-09
       0.750375  9.20157E-01  7.65620E-02  3.18518E-03  8.83614E-05  1.84606E-06  1.46023E-09
       0.775388  9.18546E-01  7.80373E-02  3.31491E-03  9.39070E-05  1.99553E-06  1.46984E-09
       0.800400  9.17926E-01  7.86037E-02  3.36548E-03  9.61081E-05  2.04760E-06  1.44990E-09
       0.825413  9.18283E-01  7.82763E-02  3.33621E-03  9.48513E-05  1.99746E-06  1.42398E-09
       0.850425  9.19568E-01  7.70991E-02  3.23210E-03  9.03947E-05  1.85533E-06  1.40241E-09
       0.875438  9.21702E-01  7.51408E-02  3.06290E-03  8.33031E-05  1.64335E-06  1.37895E-09
       0.900450  9.24582E-01  7.24908E-02  2.84182E-03  7.43375E-05  1.39012E-06  1.33668E-09
       0.925463  9.28086E-01  6.92540E-02  2.58395E-03  6.43299E-05  1.12472E-06  1.25882E-09
       0.950475  9.32084E-01  6.55457E-02  2.30474E-03  5.40674E-05  8.71769E-07  1.13803E-09
       0.975488  9.36439E-01  6.14865E-02  2.01875E-03  4.42066E-05  6.48543E-07  9.80093E-10
       1.000500  9.41016E-01  5.71980E-02  1.73853E-03  3.52255E-05  4.64210E-07  8.01240E-10
       1.025513  9.45688E-01  5.27981E-02  1.47412E-03  2.74127E-05  3.20841E-07  6.21877E-10
       1.050525  9.50336E-01  4.83973E-02  1.23266E-03  2.08853E-05  2.15354E-07  4.60036E-10
       1.075538  9.54857E-01  4.40954E-02  1.01854E-03  1.56245E-05  1.41713E-07  3.27190E-10
       1.100550  9.59162E-01  3.99789E-02  8.33638E-04  1.15192E-05  9.28221E-08  2.27196E-10
       1.125563  9.63180E-01  3.61196E-02  6.77801E-04  8.40645E-06  6.18786E-08  1.57703E-10
       1.150575  9.66857E-01  3.25733E-02  5.49367E-04  6.10594E-06  4.31269E-08  1.12714E-10
       1.175588  9.70155E-01  2.93804E-02  4.45695E-04  4.44340E-06  3.21357E-08  8.51143E-11
       1.200600  9.73052E-01  2.65661E-02  3.63635E-04  3.26520E-06  2.57537E-08  6.84516E-11
       1.225613  9.75540E-01  2.41422E-02  2.99915E-04  2.44457E-06  2.18978E-08  5.78244E-11
       1.250625  9.77623E-01  2.21088E-02  2.51417E-04  1.88233E-06  1.92906E-08  5.00333E-11
       1.275638  9.79311E-01  2.04566E-02  2.15357E-04  1.50416E-06  1.72146E-08  4.33090E-11
       1.300650  9.80625E-01  1.91692E-02  1.89378E-04  1.25646E-06  1.53143E-08  3.68848E-11
       1.325663  9.81586E-01  1.82251E-02  1.71575E-04  1.10189E-06  1.34531E-08  3.05885E-11
       1.350675  9.82223E-01  1.75998E-02  1.60477E-04  1.01535E-06  1.16179E-08  2.45346E-11
       1.375688  9.82560E-01  1.72676E-02  1.54996E-04  9.80762E-07  9.85931E-09  1.89301E-11
       1.400700  9.82626E-01  1.72028E-02  1.54376E-04  9.88604E-07  8.25827E-09  1.39720E-11
       1.425713  9.82444E-01  1.73807E-02  1.58127E-04  1.03418E-06  6.90837E-09  9.80711E-12
       1.450725  9.82038E-01  1.77782E-02  1.65974E-04  1.11644E-06  5.90852E-09  6.52741E-12
       1.475738  9.81430E-01  1.83745E-02  1.77806E-04  1.23717E-06  5.36149E-09  4.18151E-12
       1.500750  9.80637E-01  1.91508E-02  1.93639E-04  1.40057E-06  5.37578E-09  2.79083E-12
       1.525763  9.79677E-01  2.00903E-02  2.13582E-04  1.61289E-06  6.06931E-09  2.36502E-12
       1.550775  9.78565E-01  2.11780E-02  2.37809E-04  1.88230E-06  7.57400E-09  2.91423E-12
       1.575788  9.77313E-01  2.24001E-02  2.66537E-04  2.21863E-06  1.00405E-08  4.45760E-12
       1.600800  9.75935E-01  2.37440E-02  2.99998E-04  2.63329E-06  1.36422E-08  7.02831E-12
       1.625813  9.74443E-01  2.51973E-02  3.38418E-04  3.13895E-06  1.85788E-08  1.06755E-11
       1.650825  9.72848E-01  2.67479E-02  3.81993E-04  3.74916E-06  2.50765E-08  1.54629E-11
       1.675838  9.71163E-01  2.83830E-02  4.30864E-04  4.47787E-06  3.33864E-08  2.14659E-11
       1.700850  9.69401E-01  3.00897E-02  4.85093E-04  5.33871E-06  4.37781E-08  2.87650E-11
       1.725863  9.67576E-01  3.18539E-02  5.44634E-04  6.34419E-06  5.65290E-08  3.74399E-11
       1.750875  9.65703E-01  3.36609E-02  6.09321E-04  7.50466E-06  7.19081E-08  4.75631E-11
       1.775888  9.63797E-01  3.54952E-02  6.78848E-04  8.82738E-06  9.01557E-08  5.91968E-11
       1.800900  9.61876E-01  3.73410E-02  7.52762E-04  1.03155E-05  1.11460E-07  7.23945E-11
       1.825913  9.59955E-01  3.91822E-02  8.30471E-04  1.19671E-05  1.35933E-07  8.72107E-11
       1.850925  9.58051E-01  4.10030E-02  9.11254E-04  1.37751E-05  1.63590E-07  1.03718E-10
       1.875938  9.56180E-01  4.27882E-02  9.94288E-04  1.57267E-05  1.94335E-07  1.22030E-10
       1.900950  9.54357E-01  4.45242E-02  1.07868E-03  1.78037E-05  2.27958E-07  1.42332E-10
       1.925963  9.52595E-01  4.61990E-02  1.16353E-03  1.99839E-05  2.64145E-07  1.64902E-10
       1.950975  9.50904E-01  4.78025E-02  1.24794E-03  2.22417E-05  3.02498E-07  1.90123E-10
       1.975988  9.49293E-01  4.93277E-02  1.33111E-03  2.45502E-05  3.42577E-07  2.18482E-10
       2.001001  9.47767E-01  5.07696E-02  1.41232E-03  2.68824E-05  3.83935E-07  2.50543E-10
       2.026013  9.46328E-01  5.21268E-02  1.49103E-03  2.92141E-05  4.26174E-07  2.86929E-10
       2.051026  9.44975E-01  5.34014E-02  1.56694E-03  3.15264E-05  4.69018E-07  3.28437E-10
       2.076038  9.43703E-01  5.45977E-02  1.63992E-03  3.38050E-05  5.12301E-07  3.75738E-10
       2.101051  9.42506E-01  5.57218E-02  1.70998E-03  3.60406E-05  5.55976E-07  4.29317E-10
       2.126063  9.41376E-01  5.67811E-02  1.77729E-03  3.82286E-05  6.00107E-07  4.89435E-10
       2.151076  9.40306E-01  5.77837E-02  1.84211E-03  4.03691E-05  6.44840E-07  5.56077E-10
       2.176088  9.39287E-01  5.87375E-02  1.90475E-03  4.24653E-05  6.90363E-07  6.28893E-10
       2.201101  9.38311E-01  5.96499E-02  1.96555E-03  4.45221E-05  7.36850E-07  7.07154E-10
       2.226113  9.37372E-01  6.05271E-02  2.02478E-03  4.65446E-05  7.84402E-07  7.89718E-10
       2.251126  9.36466E-01  6.13730E-02  2.08265E-03  4.85359E-05  8.32985E-07  8.75029E-10
       2.276138  9.35590E-01  6.21894E-02  2.13919E-03  5.04955E-05  8.82386E-07  9.61137E-10
       2.301151  9.34747E-01  6.29753E-02  2.19427E-03  5.24176E-05  9.32167E-07  1.04577E-09
       2.326163  9.33939E-01  6.37268E-02  2.24757E-03  5.42895E-05  9.81644E-07  1.12644E-09
       2.351176  9.33175E-01  6.44373E-02  2.29854E-03  5.60916E-05  1.02989E-06  1.20059E-09
       2.376188  9.32464E-01  6.50981E-02  2.34647E-03  5.77966E-05  1.07573E-06  1.26576E-09
       2.401201  9.31818E-01  6.56983E-02  2.39046E-03  5.93705E-05  1.11784E-06  1.31981E-09
       2.426213  9.31249E-01  6.62257E-02  2.42949E-03  6.07739E-05  1.15474E-06  1.36103E-09
       2.451226  9.30772E-01  6.66675E-02  2.46247E-03  6.19641E-05  1.18495E-06  1.38831E-09
       2.476238  9.30401E-01  6.70113E-02  2.48832E-03  6.28980E-05  1.20704E-06  1.40119E-09
       2.501251  9.30148E-01  6.72451E-02  2.50604E-03  6.35347E-05  1.21980E-06  1.39988E-09
       2.526263  9.30025E-01  6.73588E-02  2.51473E-03  6.38390E-05  1.22227E-06  1.38521E-09
       2.551276  9.30040E-01  6.73441E-02  2.51372E-03  6.37841E-05  1.21390E-06  1.35850E-09
       2.576288  9.30200E-01  6.71952E-02  2.50257E-03  6.33539E-05  1.19459E-06  1.32144E-09
       2.601301  9.30508E-01  6.69089E-02  2.48110E-03  6.25444E-05  1.16473E-06  1.27590E-09
       2.626313  9.30964E-01  6.64852E-02  2.44944E-03  6.13649E-05  1.12516E-06  1.22387E-09
       2.651326  9.31564E-01  6.59265E-02  2.40799E-03  5.98367E-05  1.07716E-06  1.16726E-09
       2.676338  9.32304E-01  6.52383E-02  2.35740E-03  5.79927E-05  1.02235E-06  1.10791E-09
       2.701351  9.33175E-01  6.44284E-02  2.29858E-03  5.58751E-05  9.62570E-07  1.04747E-09
       2.726363  9.34164E-01  6.35069E-02  2.23259E-03  5.35327E-05  8.99757E-07  9.87439E-10
       2.751376  9.35259E-01  6.24854E-02  2.16064E-03  5.10184E-05  8.35820E-07  9.29103E-10
       2.776388  9.36446E-01  6.13774E-02  2.08400E-03  4.83864E-05  7.72528E-07  8.73531E-10
       2.801401  9.37708E-01  6.01969E-02  2.00398E-03  4.56895E-05  7.11410E-07  8.21552E-10
       2.826413  9.39031E-01  5.89588E-02  1.92186E-03  4.29769E-05  6.53694E-07  7.73731E-10
       2.851426  9.40397E-01  5.76780E-02  1.83885E-03  4.02929E-05  6.00273E-07  7.30348E-10
       2.876438  9.41790E-01  5.63691E-02  1.75605E-03  3.76751E-05  5.51695E-07  6.91396E-10
       2.901451  9.43197E-01  5.50460E-02  1.67444E-03  3.51544E-05  5.08189E-07  6.56590E-10
       2.926463  9.44602E-01  5.37220E-02  1.59487E-03  3.27544E-05  4.69696E-07  6.25408E-10
       2.951476  9.45994E-01  5.24089E-02  1.51801E-03  3.04921E-05  4.35927E-07  5.97141E-10
       2.976488  9.47361E-01  5.11172E-02  1.44440E-03  2.83779E-05  4.06417E-07  5.70962E-10
       3.001501  9.48693E-01  4.98562E-02  1.37443E-03  2.64166E-05  3.80585E-07  5.46005E-10
       3.026513  9.49984E-01  4.86330E-02  1.30832E-03  2.46084E-05  3.57787E-07  5.21432E-10
       3.051526  9.51226E-01  4.74536E-02  1.24622E-03  2.29495E-05  3.37365E-07  4.96503E-10
       3.076538  9.52417E-01  4.63221E-02  1.18813E-03  2.14330E-05  3.18688E-07  4.70628E-10
       3.101551  9.53553E-01  4.52411E-02  1.13396E-03  2.00498E-05  3.01185E-07  4.43400E-10
       3.126563  9.54633E-01  4.42115E-02  1.08356E-03  1.87893E-05  2.84364E-07  4.14622E-10
       3.151576  9.55659E-01  4.32331E-02  1.03670E-03  1.76396E-05  2.67833E-07  3.84306E-10
       3.176588  9.56632E-01  4.23044E-02  9.93128E-04  1.65889E-05  2.51304E-07  3.52662E-10
       3.201601  9.57555E-01  4.14228E-02  9.52531E-04  1.56247E-05  2.34596E-07  3.20081E-10
       3.226613  9.58431E-01  4.05847E-02  9.14592E-04  1.47353E-05  2.17632E-07  2.87090E-10
       3.251626  9.59266E-01  3.97861E-02  8.78979E-04  1.39093E-05  2.00429E-07  2.54312E-10
       3.276638  9.60064E-01  3.90220E-02  8.45363E-04  1.31361E-05  1.83085E-07  2.22414E-10
       3.301651  9.60830E-01  3.82876E-02  8.13421E-04  1.24063E-05  1.65765E-07  1.92052E-10
       3.326663  9.61571E-01  3.75776E-02  7.82848E-04  1.17114E-05  1.48677E-07  1.63818E-10
       3.351676  9.62291E-01  3.68868E-02  7.53360E-04  1.10441E-05  1.32057E-07  1.38192E-10
       3.376688  9.62997E-01  3.62102E-02  7.24702E-04  1.03987E-05  1.16146E-07  1.15513E-10
       3.401701  9.63692E-01  3.55430E-02  6.96650E-04  9.77036E-06  1.01170E-07  9.59500E-11
       3.426713  9.64382E-01  3.48810E-02  6.69019E-04  9.15602E-06  8.73254E-08  7.95030E-11
       3.451726  9.65070E-01  3.42203E-02  6.41658E-04  8.55367E-06  7.47645E-08  6.60143E-11
       3.476738  9.65760E-01  3.35579E-02  6.14458E-04  7.96251E-06  6.35868E-08  5.51961E-11
       3.501751  9.66454E-01  3.28910E-02  5.87347E-04  7.38281E-06  5.38349E-08  4.66687E-11
       3.526763  9.67154E-01  3.22180E-02  5.60293E-04  6.81569E-06  4.54947E-08  4.00047E-11
       3.551776  9.67861E-01  3.15376E-02  5.33298E-04  6.26295E-06  3.85010E-08  3.47729E-11
       3.576788  9.68576E-01  3.08494E-02  5.06395E-04  5.72686E-06  3.27453E-08  3.05761E-11
       3.601801  9.69299E-01  3.01535E-02  4.79645E-04  5.20993E-06  2.80867E-08  2.70801E-11
       3.626813  9.70028E-01  2.94507E-02  4.53132E-04  4.71469E-06  2.43647E-08  2.40297E-11
       3.651826  9.70763E-01  2.87422E-02  4.26956E-04  4.24353E-06  2.14106E-08  2.12527E-11
       3.676838  9.71501E-01  2.80297E-02  4.01226E-04  3.79852E-06  1.90597E-08  1.86537E-11
       3.701851  9.72241E-01  2.73152E-02  3.76059E-04  3.38131E-06  1.71599E-08  1.61990E-11
       3.726863  9.72979E-01  2.66009E-02  3.51570E-04  2.99307E-06  1.55793E-08  1.38977E-11
       3.751876  9.73714E-01  2.58894E-02  3.27868E-04  2.63440E-06  1.42104E-08  1.17822E-11
       3.776888  9.74444E-01  2.51829E-02  3.05055E-04  2.30540E-06  1.29717E-08  9.89066E-12
       3.801901  9.75164E-01  2.44840E-02  2.83218E-04  2.00568E-06  1.18071E-08  8.25383E-12
       3.826913  9.75874E-01  2.37950E-02  2.62431E-04  1.73440E-06  1.06837E-08  6.88705E-12
       3.851926  9.76570E-01  2.31181E-02  2.42752E-04  1.49040E-06  9.58741E-09  5.78747E-12
       3.876938  9.77251E-01  2.24551E-02  2.24219E-04  1.27222E-06  8.51880E-09  4.93527E-12
       3.901951  9.77916E-01  2.18078E-02  2.06856E-04  1.07824E-06  7.48819E-09  4.29790E-12
       3.926963  9.78562E-01  2.11777E-02  1.90671E-04  9.06717E-07  6.51122E-09  3.83557E-12
       3.951976  9.79188E-01  2.05659E-02  1.75655E-04  7.55891E-07  5.60499E-09  3.50692E-12
       3.976988  9.79794E-01  1.99733E-02  1.61788E-04  6.24006E-07  4.78506E-09  3.27372E-12
       4.002001  9.80379E-01  1.94007E-02  1.49038E-04  5.09369E-07  4.06332E-09  3.10414E-12
       4.027014  9.80943E-01  1.88483E-02  1.37364E-04  4.10381E-07  3.44681E-09  2.97442E-12
       4.052026  9.81485E-01  1.83166E-02  1.26718E-04  3.25547E-07  2.93730E-09  2.86897E-12
       4.077039  9.82005E-01  1.78056E-02  1.17048E-04  2.53490E-07  2.53158E-09  2.77943E-12
       4.102051  9.82504E-01  1.73154E-02  1.08298E-04  1.92949E-07  2.22213E-09  2.70295E-12
       4.127064  9.82981E-01  1.68459E-02  1.00411E-04  1.42776E-07  1.99819E-09  2.64023E-12
       4.152076  9.83437E-01  1.63972E-02  9.33299E-05  1.01925E-07  1.84691E-09  2.59366E-12
       4.177089  9.83870E-01  1.59693E-02  8.70003E-05  6.94501E-08  1.75444E-09  2.56573E-12
       4.202101  9.84283E-01  1.55622E-02  8.13695E-05  4.44882E-08  1.70703E-09  2.55802E-12
       4.227114  9.84673E-01  1.51763E-02  7.63880E-05  2.62563E-08  1.69183E-09  2.57057E-12
       4.252126  9.85041E-01  1.48120E-02  7.20106E-05  1.40415E-08  1.69749E-09  2.60174E-12
       4.277139  9.85387E-01  1.44696E-02  6.81960E-05  7.19569E-09  1.71461E-09  2.64844E-12
       4.302151  9.85710E-01  1.41499E-02  6.49072E-05  5.13022E-09  1.73585E-09  2.70653E-12
       4.327164  9.86008E-01  1.38538E-02  6.21116E-05  7.31180E-09  1.75601E-09  2.77132E-12
       4.352176  9.86282E-01  1.35821E-02  5.97808E-05  1.32590E-08  1.77183E-09  2.83811E-12
       4.377189  9.86530E-01  1.33359E-02  5.78903E-05  2.25390E-08  1.78182E-09  2.90264E-12
       4.402201  9.86750E-01  1.31165E-02  5.64190E-05  3.47648E-08  1.78590E-09  2.96143E-12
       4.427214  9.86942E-01  1.29249E-02  5.53494E-05  4.95920E-08  1.78517E-09  3.01197E-12
       4.452226  9.87105E-01  1.27624E-02  5.46669E-05  6.67163E-08  1.78151E-09  3.05289E-12
       4.477239  9.87237E-01  1.26300E-02  5.43594E-05  8.58702E-08  1.77731E-09  3.08388E-12
       4.502251  9.87338E-01  1.25288E-02  5.44171E-05  1.06820E-07  1.77519E-09  3.10561E-12
       4.527264  9.87406E-01  1.24597E-02  5.48323E-05  1.29365E-07  1.77770E-09  3.11956E-12
       4.552276  9.87442E-01  1.24232E-02  5.55987E-05  1.53330E-07  1.78718E-09  3.12778E-12
       4.577289  9.87444E-01  1.24198E-02  5.67115E-05  1.78569E-07  1.80554E-09  3.13264E-12
       4.602301  9.87412E-01  1.24495E-02  5.81667E-05  2.04960E-07  1.83417E-09  3.13661E-12
       4.627314  9.87347E-01  1.25120E-02  5.99611E-05  2.32400E-07  1.87384E-09  3.14199E-12
       4.652326  9.87250E-01  1.26066E-02  6.20916E-05  2.60807E-07  1.92470E-09  3.15074E-12
       4.677339  9.87121E-01  1.27324E-02  6.45548E-05  2.90115E-07  1.98633E-09  3.16432E-12
       4.702351  9.86963E-01  1.28879E-02  6.73465E-05  3.20270E-07  2.05772E-09  3.18363E-12
       4.727364  9.86776E-01  1.30712E-02  7.04611E-05  3.51229E-07  2.13743E-09  3.20898E-12
       4.752376  9.86563E-01  1.32802E-02  7.38908E-05  3.82954E-07  2.22367E-09  3.24014E-12
       4.777389  9.86327E-01  1.35125E-02  7.76251E-05  4.15405E-07  2.31442E-09  3.27641E-12
       4.802401  9.86069E-01  1.37651E-02  8.16497E-05  4.48540E-07  2.40752E-09  3.31676E-12
       4.827414  9.85795E-01  1.40349E-02  8.59458E-05  4.82303E-07  2.50083E-09  3.35991E-12
       4.852426  9.85506E-01  1.43186E-02  9.04896E-05  5.16621E-07  2.59230E-09  3.40446E-12
       4.877439  9.85207E-01  1.46125E-02  9.52512E-05  5.51394E-07  2.68004E-09  3.44897E-12
       4.902451  9.84901E-01  1.49129E-02  1.00194E-04  5.86491E-07  2.76245E-09  3.49199E-12
       4.927464  9.84593E-01  1.52157E-02  1.05276E-04  6.21739E-07  2.83827E-09  3.53213E-12
       4.952476  9.84286E-01  1.55170E-02  1.10446E-04  6.56924E-07  2.90668E-09  3.56796E-12
       4.977489  9.83985E-01  1.58128E-02  1.15646E-04  6.91782E-07  2.96735E-09  3.59808E-12
       5.002501  9.83693E-01  1.60988E-02  1.20814E-04  7.25998E-07  3.02053E-09  3.62100E-12
       5.027514  9.83415E-01  1.63712E-02  1.25881E-04  7.59212E-07  3.06713E-09  3.63513E-12
       5.052526  9.83155E-01  1.66260E-02  1.30774E-04  7.91024E-07  3.10878E-09  3.63876E-12
       5.077539  9.82916E-01  1.68595E-02  1.35418E-04  8.21001E-07  3.14787E-09  3.63007E-12
       5.102551  9.82703E-01  1.70684E-02  1.39737E-04  8.48697E-07  3.18751E-09  3.60718E-12
       5.127564  9.82517E-01  1.72497E-02  1.43660E-04  8.73672E-07  3.23154E-09  3.56831E-12
       5.152576  9.82362E-01  1.74005E-02  1.47118E-04  8.95510E-07  3.28433E-09  3.51194E-12
       5.177589  9.82240E-01  1.75189E-02  1.50052E-04  9.13847E-07  3.35064E-09  3.43700E-12
       5.202601  9.82153E-01  1.76033E-02  1.52413E-04  9.28397E-07  3.43531E-09  3.34320E-12
       5.227614  9.82102E-01  1.76528E-02  1.54165E-04  9.38969E-07  3.54295E-09  3.23125E-12
