# population in each cavity level over  time for $\ket{\Psi(t=0)} = \ket{01}$ (integrated over all qubit levels)
#        t [ns]            0            1            2            3            4            5
       0.000000  9.40878E-01  5.91219E-02  1.84903E-31  3.19932E-32  3.17404E-33  3.88989E-35
       0.025013  9.40876E-01  5.91214E-02  1.73741E-12  1.91469E-23  2.41798E-33  8.17648E-36
       0.050025  9.40875E-01  5.91210E-02  1.66084E-10  1.74963E-19  1.08353E-28  2.42933E-36
       0.075038  9.40873E-01  5.91205E-02  1.95386E-09  2.42148E-17  1.77802E-25  6.28489E-34
       0.100050  9.40871E-01  5.91201E-02  1.08085E-08  7.41021E-16  3.01053E-23  5.21020E-31
       0.125063  9.40869E-01  5.91199E-02  4.00307E-08  1.01645E-14  1.52944E-21  8.95320E-29
       0.150075  9.40867E-01  5.91199E-02  1.15362E-07  8.44161E-14  3.66054E-20  5.64796E-27
       0.175088  9.40864E-01  5.91205E-02  2.79843E-07  4.96743E-13  5.22525E-19  1.79215E-25
       0.200100  9.40859E-01  5.91221E-02  5.98567E-07  2.27262E-12  5.11329E-18  3.44570E-24
       0.225113  9.40853E-01  5.91253E-02  1.16300E-06  8.57931E-12  3.75050E-17  4.52263E-23
       0.250125  9.40845E-01  5.91309E-02  2.09458E-06  2.78278E-11  2.19094E-16  4.39447E-22
       0.275138  9.40832E-01  5.91399E-02  3.54746E-06  7.98186E-11  1.06430E-15  3.34838E-21
       0.300150  9.40814E-01  5.91535E-02  5.71014E-06  2.06792E-10  4.43821E-15  2.08730E-20
       0.325163  9.40789E-01  5.91731E-02  8.80592E-06  4.91756E-10  1.62752E-14  1.09926E-19
       0.350175  9.40755E-01  5.92003E-02  1.30922E-05  1.08685E-09  5.34751E-14  5.01417E-19
       0.375188  9.40710E-01  5.92372E-02  1.88587E-05  2.25468E-09  1.59778E-13  2.02034E-18
       0.400200  9.40652E-01  5.92856E-02  2.64239E-05  4.42541E-09  4.39346E-13  7.30552E-18
       0.425213  9.40578E-01  5.93478E-02  3.61314E-05  8.27170E-09  1.12268E-12  2.40150E-17
       0.450225  9.40485E-01  5.94262E-02  4.83444E-05  1.48029E-08  2.68758E-12  7.25338E-17
       0.475238  9.40371E-01  5.95230E-02  6.34393E-05  2.54778E-08  6.06817E-12  2.03087E-16
       0.500250  9.40233E-01  5.96407E-02  8.17994E-05  4.23340E-08  1.29962E-11  5.31072E-16
       0.525263  9.40067E-01  5.97818E-02  1.03807E-04  6.81293E-08  2.65304E-11  1.30528E-15
       0.550275  9.39872E-01  5.99484E-02  1.29835E-04  1.06488E-07  5.18379E-11  3.03171E-15
       0.575288  9.39645E-01  6.01428E-02  1.60239E-04  1.62044E-07  9.72938E-11  6.68531E-15
       0.600300  9.39384E-01  6.03669E-02  1.95349E-04  2.40564E-07  1.75960E-10  1.40525E-14
       0.625313  9.39086E-01  6.06224E-02  2.35460E-04  3.49050E-07  3.07479E-10  2.82554E-14
       0.650325  9.38750E-01  6.09108E-02  2.80824E-04  4.95785E-07  5.20389E-10  5.45117E-14
       0.675338  9.38374E-01  6.12329E-02  3.31640E-04  6.90337E-07  8.54806E-10  1.01176E-13
       0.700350  9.37959E-01  6.15894E-02  3.88050E-04  9.43474E-07  1.36535E-09  1.81088E-13
       0.725363  9.37503E-01  6.19804E-02  4.50128E-04  1.26701E-06  2.12410E-09  3.13208E-13
       0.750375  9.37008E-01  6.24055E-02  5.17876E-04  1.67357E-06  3.22332E-09  5.24458E-13
       0.775388  9.36473E-01  6.28640E-02  5.91218E-04  2.17621E-06  4.77753E-09  8.51619E-13
       0.800400  9.35901E-01  6.33543E-02  6.69996E-04  2.78802E-06  6.92454E-09  1.34303E-12
       0.825413  9.35294E-01  6.38745E-02  7.53969E-04  3.52163E-06  9.82502E-09  2.05976E-12
       0.850425  9.34654E-01  6.44222E-02  8.42809E-04  4.38859E-06  1.36601E-08  3.07591E-12
       0.875438  9.33985E-01  6.49944E-02  9.36106E-04  5.39880E-06  1.86267E-08  4.47762E-12
       0.900450  9.33291E-01  6.55876E-02  1.03337E-03  6.55989E-06  2.49308E-08  6.36046E-12
       0.925463  9.32577E-01  6.61981E-02  1.13402E-03  7.87662E-06  3.27775E-08  8.82508E-12
       0.950475  9.31846E-01  6.68215E-02  1.23744E-03  9.35033E-06  4.23602E-08  1.19710E-11
       0.975488  9.31104E-01  6.74536E-02  1.34290E-03  1.09785E-05  5.38470E-08  1.58890E-11
       1.000500  9.30358E-01  6.80894E-02  1.44968E-03  1.27546E-05  6.73672E-08  2.06522E-11
       1.025513  9.29611E-01  6.87243E-02  1.55696E-03  1.46676E-05  8.29973E-08  2.63070E-11
       1.050525  9.28871E-01  6.93532E-02  1.66393E-03  1.67022E-05  1.00749E-07  3.28649E-11
       1.075538  9.28143E-01  6.99712E-02  1.76976E-03  1.88389E-05  1.20558E-07  4.02953E-11
       1.100550  9.27432E-01  7.05737E-02  1.87359E-03  2.10544E-05  1.42279E-07  4.85209E-11
       1.125563  9.26744E-01  7.11559E-02  1.97461E-03  2.33222E-05  1.65682E-07  5.74167E-11
       1.150575  9.26084E-01  7.17134E-02  2.07201E-03  2.56129E-05  1.90451E-07  6.68117E-11
       1.175588  9.25458E-01  7.22422E-02  2.16501E-03  2.78953E-05  2.16198E-07  7.64946E-11
       1.200600  9.24869E-01  7.27385E-02  2.25289E-03  3.01371E-05  2.42466E-07  8.62226E-11
       1.225613  9.24322E-01  7.31988E-02  2.33499E-03  3.23056E-05  2.68749E-07  9.57331E-11
       1.250625  9.23820E-01  7.36204E-02  2.41070E-03  3.43689E-05  2.94510E-07  1.04756E-10
       1.275638  9.23367E-01  7.40007E-02  2.47949E-03  3.62963E-05  3.19198E-07  1.13030E-10
       1.300650  9.22964E-01  7.43376E-02  2.54090E-03  3.80597E-05  3.42275E-07  1.20310E-10
       1.325663  9.22615E-01  7.46296E-02  2.59456E-03  3.96337E-05  3.63230E-07  1.26388E-10
       1.350675  9.22319E-01  7.48755E-02  2.64019E-03  4.09965E-05  3.81606E-07  1.31095E-10
       1.375688  9.22079E-01  7.50749E-02  2.67757E-03  4.21304E-05  3.97011E-07  1.34311E-10
       1.400700  9.21894E-01  7.52275E-02  2.70660E-03  4.30219E-05  4.09134E-07  1.35970E-10
       1.425713  9.21764E-01  7.53335E-02  2.72722E-03  4.36622E-05  4.17757E-07  1.36059E-10
       1.450725  9.21689E-01  7.53938E-02  2.73949E-03  4.40471E-05  4.22755E-07  1.34620E-10
       1.475738  9.21667E-01  7.54093E-02  2.74351E-03  4.41768E-05  4.24103E-07  1.31737E-10
       1.500750  9.21696E-01  7.53817E-02  2.73950E-03  4.40561E-05  4.21869E-07  1.27539E-10
       1.525763  9.21775E-01  7.53126E-02  2.72770E-03  4.36936E-05  4.16208E-07  1.22186E-10
       1.550775  9.21901E-01  7.52042E-02  2.70843E-03  4.31018E-05  4.07353E-07  1.15862E-10
       1.575788  9.22071E-01  7.50589E-02  2.68208E-03  4.22965E-05  3.95605E-07  1.08765E-10
       1.600800  9.22282E-01  7.48795E-02  2.64905E-03  4.12959E-05  3.81312E-07  1.01098E-10
       1.625813  9.22531E-01  7.46686E-02  2.60983E-03  4.01206E-05  3.64860E-07  9.30631E-11
       1.650825  9.22814E-01  7.44295E-02  2.56491E-03  3.87928E-05  3.46659E-07  8.48516E-11
       1.675838  9.23127E-01  7.41651E-02  2.51481E-03  3.73358E-05  3.27122E-07  7.66392E-11
       1.700850  9.23467E-01  7.38790E-02  2.46009E-03  3.57732E-05  3.06659E-07  6.85814E-11
       1.725863  9.23830E-01  7.35743E-02  2.40132E-03  3.41288E-05  2.85661E-07  6.08104E-11
       1.750875  9.24211E-01  7.32546E-02  2.33907E-03  3.24257E-05  2.64492E-07  5.34339E-11
       1.775888  9.24607E-01  7.29232E-02  2.27391E-03  3.06865E-05  2.43479E-07  4.65340E-11
       1.800900  9.25014E-01  7.25835E-02  2.20643E-03  2.89321E-05  2.22912E-07  4.01685E-11
       1.825913  9.25427E-01  7.22388E-02  2.13719E-03  2.71820E-05  2.03035E-07  3.43724E-11
       1.850925  9.25843E-01  7.18925E-02  2.06676E-03  2.54542E-05  1.84048E-07  2.91602E-11
       1.875938  9.26259E-01  7.15476E-02  1.99569E-03  2.37643E-05  1.66104E-07  2.45289E-11
       1.900950  9.26669E-01  7.12073E-02  1.92449E-03  2.21261E-05  1.49316E-07  2.04608E-11
       1.925963  9.27072E-01  7.08744E-02  1.85369E-03  2.05513E-05  1.33756E-07  1.69268E-11
       1.950975  9.27464E-01  7.05517E-02  1.78376E-03  1.90494E-05  1.19461E-07  1.38897E-11
       1.975988  9.27842E-01  7.02417E-02  1.71516E-03  1.76279E-05  1.06436E-07  1.13066E-11
       2.001001  9.28202E-01  6.99468E-02  1.64832E-03  1.62923E-05  9.46583E-08  9.13171E-12
       2.026013  9.28544E-01  6.96691E-02  1.58364E-03  1.50463E-05  8.40862E-08  7.31887E-12
       2.051026  9.28864E-01  6.94103E-02  1.52145E-03  1.38913E-05  7.46561E-08  5.82446E-12
       2.076038  9.29160E-01  6.91718E-02  1.46207E-03  1.28276E-05  6.62947E-08  4.60389E-12
       2.101051  9.29432E-01  6.89550E-02  1.40579E-03  1.18543E-05  5.89224E-08  3.61496E-12
       2.126063  9.29678E-01  6.87609E-02  1.35285E-03  1.09695E-05  5.24569E-08  2.81966E-12
       2.151076  9.29896E-01  6.85904E-02  1.30348E-03  1.01707E-05  4.68151E-08  2.18466E-12
       2.176088  9.30086E-01  6.84443E-02  1.25789E-03  9.45454E-06  4.19159E-08  1.68123E-12
       2.201101  9.30247E-01  6.83229E-02  1.21624E-03  8.81753E-06  3.76818E-08  1.28493E-12
       2.226113  9.30379E-01  6.82265E-02  1.17868E-03  8.25579E-06  3.40399E-08  9.75221E-13
       2.251126  9.30482E-01  6.81553E-02  1.14531E-03  7.76534E-06  3.09231E-08  7.35005E-13
       2.276138  9.30556E-01  6.81090E-02  1.11621E-03  7.34219E-06  2.82708E-08  5.50200E-13
       2.301151  9.30600E-01  6.80874E-02  1.09144E-03  6.98252E-06  2.60286E-08  4.09306E-13
       2.326163  9.30616E-01  6.80899E-02  1.07101E-03  6.68268E-06  2.41492E-08  3.03014E-13
       2.351176  9.30604E-01  6.81159E-02  1.05493E-03  6.43932E-06  2.25916E-08  2.23856E-13
       2.376188  9.30565E-01  6.81646E-02  1.04315E-03  6.24944E-06  2.13209E-08  1.65888E-13
       2.401201  9.30500E-01  6.82350E-02  1.03562E-03  6.11035E-06  2.03084E-08  1.24422E-13
       2.426213  9.30410E-01  6.83261E-02  1.03225E-03  6.01978E-06  1.95309E-08  9.57999E-14
       2.451226  9.30296E-01  6.84367E-02  1.03294E-03  5.97579E-06  1.89700E-08  7.72153E-14
       2.476238  9.30160E-01  6.85657E-02  1.03757E-03  5.97680E-06  1.86122E-08  6.65663E-14
       2.501251  9.30004E-01  6.87116E-02  1.04599E-03  6.02153E-06  1.84479E-08  6.23522E-14
       2.526263  9.29827E-01  6.88733E-02  1.05805E-03  6.10897E-06  1.84710E-08  6.36015E-14
       2.551276  9.29633E-01  6.90494E-02  1.07358E-03  6.23834E-06  1.86790E-08  6.98321E-14
       2.576288  9.29423E-01  6.92385E-02  1.09240E-03  6.40905E-06  1.90716E-08  8.10371E-14
       2.601301  9.29197E-01  6.94394E-02  1.11433E-03  6.62063E-06  1.96509E-08  9.76971E-14
       2.626313  9.28958E-01  6.96509E-02  1.13919E-03  6.87272E-06  2.04209E-08  1.20812E-13
       2.651326  9.28707E-01  6.98717E-02  1.16677E-03  7.16500E-06  2.13869E-08  1.51952E-13
       2.676338  9.28446E-01  7.01008E-02  1.19690E-03  7.49719E-06  2.25553E-08  1.93329E-13
       2.701351  9.28174E-01  7.03371E-02  1.22938E-03  7.86904E-06  2.39335E-08  2.47876E-13
       2.726363  9.27894E-01  7.05798E-02  1.26404E-03  8.28026E-06  2.55295E-08  3.19356E-13
       2.751376  9.27606E-01  7.08279E-02  1.30070E-03  8.73057E-06  2.73518E-08  4.12488E-13
       2.776388  9.27312E-01  7.10808E-02  1.33921E-03  9.21972E-06  2.94098E-08  5.33105E-13
       2.801401  9.27012E-01  7.13379E-02  1.37941E-03  9.74746E-06  3.17141E-08  6.88356E-13
       2.826413  9.26706E-01  7.15987E-02  1.42116E-03  1.03136E-05  3.42764E-08  8.86983E-13
       2.851426  9.26396E-01  7.18629E-02  1.46433E-03  1.09180E-05  3.71109E-08  1.13968E-12
       2.876438  9.26081E-01  7.21301E-02  1.50881E-03  1.15606E-05  4.02344E-08  1.45958E-12
       2.901451  9.25762E-01  7.24004E-02  1.55450E-03  1.22417E-05  4.36678E-08  1.86293E-12
       2.926463  9.25439E-01  7.26735E-02  1.60131E-03  1.29617E-05  4.74371E-08  2.37000E-12
       2.951476  9.25112E-01  7.29496E-02  1.64919E-03  1.37213E-05  5.15750E-08  3.00619E-12
       2.976488  9.24781E-01  7.32288E-02  1.69808E-03  1.45214E-05  5.61218E-08  3.80363E-12
       3.001501  9.24445E-01  7.35114E-02  1.74795E-03  1.53637E-05  6.11280E-08  4.80303E-12
       3.026513  9.24105E-01  7.37977E-02  1.79879E-03  1.62500E-05  6.66549E-08  6.05607E-12
       3.051526  9.23759E-01  7.40881E-02  1.85059E-03  1.71829E-05  7.27771E-08  7.62827E-12
       3.076538  9.23408E-01  7.43829E-02  1.90338E-03  1.81654E-05  7.95837E-08  9.60230E-12
       3.101551  9.23051E-01  7.46828E-02  1.95718E-03  1.92014E-05  8.71801E-08  1.20818E-11
       3.126563  9.22687E-01  7.49881E-02  2.01205E-03  2.02954E-05  9.56894E-08  1.51957E-11
       3.151576  9.22316E-01  7.52995E-02  2.06805E-03  2.14525E-05  1.05253E-07  1.91023E-11
       3.176588  9.21937E-01  7.56176E-02  2.12525E-03  2.26787E-05  1.16034E-07  2.39945E-11
       3.201601  9.21550E-01  7.59427E-02  2.18375E-03  2.39809E-05  1.28214E-07  3.01035E-11
       3.226613  9.21153E-01  7.62756E-02  2.24363E-03  2.53664E-05  1.41997E-07  3.77031E-11
       3.251626  9.20747E-01  7.66165E-02  2.30499E-03  2.68434E-05  1.57608E-07  4.71126E-11
       3.276638  9.20331E-01  7.69661E-02  2.36795E-03  2.84206E-05  1.75295E-07  5.86992E-11
       3.301651  9.19903E-01  7.73246E-02  2.43259E-03  3.01071E-05  1.95325E-07  7.28779E-11
       3.326663  9.19465E-01  7.76922E-02  2.49902E-03  3.19125E-05  2.17985E-07  9.01106E-11
       3.351676  9.19015E-01  7.80692E-02  2.56731E-03  3.38462E-05  2.43584E-07  1.10902E-10
       3.376688  9.18554E-01  7.84556E-02  2.63755E-03  3.59180E-05  2.72443E-07  1.35794E-10
       3.401701  9.18082E-01  7.88511E-02  2.70979E-03  3.81369E-05  3.04903E-07  1.65358E-10
       3.426713  9.17598E-01  7.92556E-02  2.78407E-03  4.05117E-05  3.41311E-07  2.00182E-10
       3.451726  9.17104E-01  7.96686E-02  2.86038E-03  4.30499E-05  3.82022E-07  2.40860E-10
       3.476738  9.16599E-01  8.00895E-02  2.93872E-03  4.57582E-05  4.27391E-07  2.87972E-10
       3.501751  9.16085E-01  8.05174E-02  3.01902E-03  4.86415E-05  4.77768E-07  3.42071E-10
       3.526763  9.15564E-01  8.09514E-02  3.10119E-03  5.17031E-05  5.33483E-07  4.03656E-10
       3.551776  9.15035E-01  8.13904E-02  3.18511E-03  5.49439E-05  5.94842E-07  4.73160E-10
       3.576788  9.14501E-01  8.18329E-02  3.27060E-03  5.83625E-05  6.62111E-07  5.50916E-10
       3.601801  9.13963E-01  8.22774E-02  3.35745E-03  6.19551E-05  7.35503E-07  6.37142E-10
       3.626813  9.13424E-01  8.27224E-02  3.44542E-03  6.57148E-05  8.15165E-07  7.31912E-10
       3.651826  9.12885E-01  8.31660E-02  3.53421E-03  6.96317E-05  9.01161E-07  8.35136E-10
       3.676838  9.12349E-01  8.36063E-02  3.62351E-03  7.36929E-05  9.93457E-07  9.46537E-10
       3.701851  9.11818E-01  8.40413E-02  3.71295E-03  7.78826E-05  1.09191E-06  1.06563E-09
       3.726863  9.11294E-01  8.44690E-02  3.80214E-03  8.21816E-05  1.19624E-06  1.19173E-09
       3.751876  9.10780E-01  8.48872E-02  3.89066E-03  8.65682E-05  1.30607E-06  1.32389E-09
       3.776888  9.10279E-01  8.52939E-02  3.97809E-03  9.10178E-05  1.42083E-06  1.46096E-09
       3.801901  9.09793E-01  8.56870E-02  4.06397E-03  9.55034E-05  1.53986E-06  1.60157E-09
       3.826913  9.09324E-01  8.60644E-02  4.14783E-03  9.99961E-05  1.66233E-06  1.74412E-09
       3.851926  9.08876E-01  8.64242E-02  4.22921E-03  1.04465E-04  1.78730E-06  1.88686E-09
       3.876938  9.08450E-01  8.67645E-02  4.30765E-03  1.08879E-04  1.91370E-06  2.02787E-09
       3.901951  9.08049E-01  8.70835E-02  4.38270E-03  1.13205E-04  2.04037E-06  2.16515E-09
       3.926963  9.07674E-01  8.73797E-02  4.45390E-03  1.17410E-04  2.16609E-06  2.29663E-09
       3.951976  9.07329E-01  8.76515E-02  4.52085E-03  1.21461E-04  2.28958E-06  2.42027E-09
       3.976988  9.07014E-01  8.78978E-02  4.58314E-03  1.25328E-04  2.40954E-06  2.53409E-09
       4.002001  9.06730E-01  8.81175E-02  4.64042E-03  1.28980E-04  2.52470E-06  2.63624E-09
       4.027014  9.06480E-01  8.83097E-02  4.69234E-03  1.32389E-04  2.63382E-06  2.72508E-09
       4.052026  9.06264E-01  8.84737E-02  4.73863E-03  1.35529E-04  2.73575E-06  2.79920E-09
       4.077039  9.06082E-01  8.86092E-02  4.77903E-03  1.38375E-04  2.82944E-06  2.85748E-09
       4.102051  9.05936E-01  8.87160E-02  4.81334E-03  1.40909E-04  2.91398E-06  2.89913E-09
       4.127064  9.05825E-01  8.87941E-02  4.84140E-03  1.43114E-04  2.98859E-06  2.92371E-09
       4.152076  9.05749E-01  8.88438E-02  4.86311E-03  1.44976E-04  3.05268E-06  2.93112E-09
       4.177089  9.05708E-01  8.88655E-02  4.87841E-03  1.46487E-04  3.10583E-06  2.92163E-09
       4.202101  9.05700E-01  8.88600E-02  4.88730E-03  1.47640E-04  3.14781E-06  2.89584E-09
       4.227114  9.05726E-01  8.88283E-02  4.88981E-03  1.48436E-04  3.17855E-06  2.85465E-09
       4.252126  9.05784E-01  8.87715E-02  4.88604E-03  1.48877E-04  3.19820E-06  2.79923E-09
       4.277139  9.05871E-01  8.86909E-02  4.87614E-03  1.48969E-04  3.20704E-06  2.73097E-09
       4.302151  9.05988E-01  8.85881E-02  4.86028E-03  1.48724E-04  3.20554E-06  2.65146E-09
       4.327164  9.06130E-01  8.84648E-02  4.83871E-03  1.48154E-04  3.19428E-06  2.56237E-09
       4.352176  9.06298E-01  8.83228E-02  4.81167E-03  1.47278E-04  3.17398E-06  2.46549E-09
       4.377189  9.06487E-01  8.81642E-02  4.77950E-03  1.46114E-04  3.14543E-06  2.36258E-09
       4.402201  9.06696E-01  8.79910E-02  4.74251E-03  1.44685E-04  3.10953E-06  2.25542E-09
       4.427214  9.06922E-01  8.78055E-02  4.70109E-03  1.43015E-04  3.06721E-06  2.14568E-09
       4.452226  9.07162E-01  8.76098E-02  4.65561E-03  1.41130E-04  3.01942E-06  2.03496E-09
       4.477239  9.07414E-01  8.74064E-02  4.60650E-03  1.39055E-04  2.96713E-06  1.92472E-09
       4.502251  9.07675E-01  8.71975E-02  4.55417E-03  1.36819E-04  2.91130E-06  1.81627E-09
       4.527264  9.07942E-01  8.69853E-02  4.49906E-03  1.34449E-04  2.85285E-06  1.71074E-09
       4.552276  9.08213E-01  8.67721E-02  4.44161E-03  1.31970E-04  2.79265E-06  1.60912E-09
       4.577289  9.08484E-01  8.65601E-02  4.38224E-03  1.29409E-04  2.73153E-06  1.51220E-09
       4.602301  9.08754E-01  8.63512E-02  4.32138E-03  1.26791E-04  2.67024E-06  1.42062E-09
       4.627314  9.09020E-01  8.61474E-02  4.25945E-03  1.24139E-04  2.60943E-06  1.33486E-09
       4.652326  9.09280E-01  8.59503E-02  4.19685E-03  1.21474E-04  2.54972E-06  1.25525E-09
       4.677339  9.09531E-01  8.57615E-02  4.13395E-03  1.18815E-04  2.49160E-06  1.18198E-09
       4.702351  9.09774E-01  8.55823E-02  4.07110E-03  1.16181E-04  2.43550E-06  1.11515E-09
       4.727364  9.10005E-01  8.54137E-02  4.00862E-03  1.13586E-04  2.38176E-06  1.05474E-09
       4.752376  9.10224E-01  8.52564E-02  3.94681E-03  1.11042E-04  2.33064E-06  1.00064E-09
       4.777389  9.10430E-01  8.51110E-02  3.88591E-03  1.08559E-04  2.28232E-06  9.52708E-10
       4.802401  9.10623E-01  8.49776E-02  3.82614E-03  1.06147E-04  2.23693E-06  9.10714E-10
       4.827414  9.10803E-01  8.48562E-02  3.76768E-03  1.03810E-04  2.19452E-06  8.74407E-10
       4.852426  9.10969E-01  8.47464E-02  3.71069E-03  1.01553E-04  2.15509E-06  8.43504E-10
       4.877439  9.11123E-01  8.46475E-02  3.65526E-03  9.93777E-05  2.11858E-06  8.17704E-10
       4.902451  9.11265E-01  8.45586E-02  3.60147E-03  9.72842E-05  2.08491E-06  7.96695E-10
       4.927464  9.11397E-01  8.44786E-02  3.54935E-03  9.52716E-05  2.05394E-06  7.80160E-10
       4.952476  9.11519E-01  8.44061E-02  3.49892E-03  9.33378E-05  2.02552E-06  7.67783E-10
       4.977489  9.11634E-01  8.43394E-02  3.45015E-03  9.14794E-05  1.99947E-06  7.59253E-10
       5.002501  9.11742E-01  8.42770E-02  3.40300E-03  8.96927E-05  1.97561E-06  7.54267E-10
       5.027514  9.11847E-01  8.42168E-02  3.35741E-03  8.79731E-05  1.95374E-06  7.52532E-10
       5.052526  9.11950E-01  8.41570E-02  3.31329E-03  8.63159E-05  1.93365E-06  7.53765E-10
       5.077539  9.12053E-01  8.40956E-02  3.27057E-03  8.47164E-05  1.91517E-06  7.57699E-10
       5.102551  9.12159E-01  8.40307E-02  3.22914E-03  8.31697E-05  1.89809E-06  7.64084E-10
       5.127564  9.12268E-01  8.39603E-02  3.18892E-03  8.16716E-05  1.88226E-06  7.72686E-10
       5.152576  9.12384E-01  8.38825E-02  3.14982E-03  8.02181E-05  1.86751E-06  7.83292E-10
       5.177589  9.12508E-01  8.37957E-02  3.11174E-03  7.88055E-05  1.85373E-06  7.95711E-10
       5.202601  9.12641E-01  8.36983E-02  3.07462E-03  7.74312E-05  1.84081E-06  8.09778E-10
       5.227614  9.12785E-01  8.35888E-02  3.03841E-03  7.60930E-05  1.82866E-06  8.25353E-10
