#        t [ns]             Re[<00|Psi>]             Im[<00|Psi>]             Re[<01|Psi>]             Im[<01|Psi>]             Re[<10|Psi>]             Im[<10|Psi>]             Re[<11|Psi>]             Im[<11|Psi>]
       0.000000   0.0000000000000000E+00   0.0000000000000000E+00   1.0000000000000002E+00   0.0000000000000000E+00   5.5511151231256798E-17   0.0000000000000000E+00   2.5163331506687795E-16   0.0000000000000000E+00
       0.025013   9.1917458362435216E-07   1.5499816603764838E-07   6.0227735095032209E-01  -7.9828550878967364E-01  -1.0372054452811866E-07   1.3974800595895052E-07   5.4682660933900806E-07   1.1232996667357349E-06
       0.050025   9.0157367937497138E-06   1.3478453686794643E-06  -2.7452174584859634E-01  -9.6157856233738059E-01   1.0082274874700806E-07   3.3321517925455404E-07   9.2325043246190067E-06  -8.0014002904125315E-06
       0.075038   3.1011618420655544E-05   4.1065711497555585E-06  -9.3295245374601277E-01  -3.5999025496023634E-01   4.9225172596423493E-07   1.7672878574459920E-07  -3.4789449453716827E-05  -2.3389971705692322E-05
       0.100050   7.3143252069190608E-05   8.4426321690338716E-06  -8.4927110190477950E-01   5.2794842299005895E-01   5.8375037396974621E-07  -3.8876532945653890E-07  -3.1667745803109171E-05   9.3436634583308323E-05
       0.125063   1.4115134906787059E-04   1.3871725020253935E-05  -9.0043171668690039E-02   9.9593205265585527E-01   4.5595070568055296E-08  -8.8858669070047926E-07   1.8964970624617272E-04   1.1718036643541763E-05
       0.150075   2.4027153943425558E-04   1.9439429968627923E-05   7.4080687636539200E-01   6.7170726192981356E-01  -8.4881094788992790E-07  -7.0128649547192535E-07  -6.5146268329016480E-05  -3.1623429083177650E-04
       0.175088   3.7522622680220873E-04   2.3751566947767325E-05   9.8238462657604952E-01  -1.8682109466640898E-01  -1.3178181307859496E-06   3.2285659631871394E-07  -4.4936551459240213E-04   2.2702881721099451E-04
       0.200100   5.5021798850502619E-04   2.5009087344960092E-05   4.4253094207757804E-01  -8.9674008459090415E-01  -6.5940729026409139E-07   1.5559641275696417E-06   4.9292303892531049E-04   5.4832552481171232E-04
       0.225113   7.6892482484615572E-04   2.1047261975573962E-05  -4.4932669657107244E-01  -8.9335006400284411E-01   1.0810003297291350E-06   1.8551471092087908E-06   5.5923303436128163E-04  -8.6418709544441863E-04
       0.250125   1.0344975322887180E-03   9.3788582267975315E-06  -9.8376321702028580E-01  -1.7935344780203608E-01   2.7723831554916568E-06   3.2265324268290221E-07  -1.3177391449476835E-03  -4.2260464109296889E-04
       0.275138   1.3495594428362730E-03  -1.2759071243329569E-05  -7.3566934720975197E-01   6.7729777727340956E-01   2.5510254102886598E-06  -2.6834513074810312E-06  -8.3906323610921473E-05   1.8025349386976244E-03
       0.300150   1.7162087360250474E-03  -4.8355238347334410E-05   9.7596903158586254E-02   9.9518524765600269E-01  -8.2356020193950532E-07  -4.9130381257203578E-06   2.2404849155564749E-03  -4.9432637748052179E-04
       0.325163   2.1360234904111721E-03  -1.0057153091203795E-04   8.5320803169269088E-01   5.2146248950901086E-01  -5.9910053256953188E-06  -3.1078431583919719E-06  -1.3206169350845542E-03  -2.5323681611640466E-03
       0.350175   2.6100695980535815E-03  -1.7268838000037771E-04   9.3012663759287617E-01  -3.6702635105264475E-01  -8.2451826453603463E-06   3.9610783457157062E-06  -2.5685836536993778E-03   2.3648965021890564E-03
       0.375188   3.1389116184126179E-03  -2.6804874587824101E-04   2.6720213902184453E-01  -9.6352972775776602E-01  -2.4059402458018970E-06   1.2102864671236340E-05   3.5529281856301440E-03   2.2438374093539178E-03
       0.400200   3.7226265979174709E-03  -3.9000144798707838E-04  -6.0821165824124801E-01  -7.9359334451592700E-01   1.1020783339156723E-05   1.2294527196449596E-05   1.4741932572635826E-03  -4.7662821608616323E-03
       0.425213   4.3608208293662914E-03  -5.4184461911385815E-04  -9.9977970731647825E-01   7.5484119980788848E-03   2.1782744214744209E-05  -1.9087829655109233E-06  -5.8487290865656206E-03  -2.1440349585711375E-04
       0.450225   5.0526494730161091E-03  -7.2677010842778309E-04  -5.9609959119462697E-01   8.0259709826846326E-01   1.5103539042800182E-05  -2.4321083575239167E-05   1.5268448194357743E-03   6.6191483452594947E-03
       0.475238   5.7968389108572502E-03  -9.4780968957850712E-04   2.8163905990951899E-01   9.5918125931614540E-01  -1.3470341113883757E-05  -3.4504751291270990E-05   6.8901983409291392E-03  -3.6761346729519287E-03
       0.500250   6.5917116595193767E-03  -1.2077839459988192E-03   9.3523060913403333E-01   3.5286486714741860E-01  -4.5635114913623057E-05  -1.2653180061055044E-05  -6.0910486452835904E-03  -6.4911650116625088E-03
       0.525263   7.4352136278676619E-03  -1.5092547033552571E-03   8.4488801126626256E-01  -5.3396556837641873E-01  -4.7356045075077736E-05   3.6588826045236115E-05  -5.2926906048518978E-03   8.5639227752603679E-03
       0.550275   8.3249434745111903E-03  -1.8544818562827262E-03   8.2642908158935449E-02  -9.9592713577156688E-01   1.1579241467023206E-06   7.4770169541601154E-05   1.0834314820207514E-02   3.2305786866047084E-03
       0.575288   9.2581837993657903E-03  -2.2453853910657279E-03  -7.4510606369622501E-01  -6.6574802916657683E-01   7.4873204773614135E-05   5.4217310308526588E-05   3.2564740572260854E-04  -1.2609906070331963E-02
       0.600300   1.0231933892246541E-02  -2.6835133361101716E-03  -9.8006559535584870E-01   1.9373008939498923E-01   1.0799624510069260E-04  -3.3638729042131371E-05  -1.3594519571176767E-02   3.3032898530627138E-03
       0.625313   1.1242943759213048E-02  -3.1700162770430967E-03  -4.3562155843653488E-01   8.9883302081111771E-01   4.5719199562653383E-05  -1.2922298486058546E-04   7.4357817571606283E-03   1.3520946323346258E-02
       0.650325   1.2287749151919112E-02  -3.7056289531807716E-03   4.5495642040112438E-01   8.8895249223706851E-01  -9.1406746540407697E-05  -1.3686997751533164E-04   1.2185439560270810E-02  -1.1757114008668757E-02
       0.675338   1.3362707333425419E-02  -4.2906593082718981E-03   9.8337915833997680E-01   1.7230194637745641E-01  -1.9563513122194894E-04  -1.0385884645184587E-05  -1.5877321576619838E-02  -9.4801736159623399E-03
       0.700350   1.4464033322154280E-02  -4.9249852036574553E-03   7.2971878599738615E-01  -6.8093886892919664E-01  -1.4807771274425482E-04   1.7766490886532139E-04  -5.4197577639265460E-03   1.9361213360388829E-02
       0.725363   1.5587836360163332E-02  -5.6080588206754642E-03  -1.0387682145794766E-01  -9.9235306968074044E-01   6.2888532405560731E-05   2.6351687517194630E-04   2.1767475655843787E-02   1.5810643176979291E-04
       0.750375   1.6730156349513060E-02  -6.3389185872049078E-03  -8.5434938936927496E-01  -5.1475486775521695E-01   2.8922071498895723E-04   1.2480317471195431E-04  -6.0073846647166630E-03  -2.2693687033631754E-02
       0.775388   1.7886999989110006E-02  -7.1162082679751939E-03  -9.2522797673474344E-01   3.7163441637541178E-01   3.1527793159700720E-04  -1.8128690828539623E-04  -2.1823064671988746E-02   1.2646348375189888E-02
       0.800400   1.9054376323537500E-02  -7.9382026680218203E-03  -2.6072802588316596E-01   9.6197583638218009E-01   4.9796593771046019E-05  -4.1410229353645769E-04   1.9221240899874335E-02   1.8968107859348694E-02
       0.825413   2.0228331386478001E-02  -8.8028392222283362E-03   6.1040987653312762E-01   7.8736276036277286E-01  -3.4413473975367158E-04  -3.2782347171311582E-04   1.4106119240516133E-02  -2.5127415503326790E-02
       0.850425   2.1404981587688152E-02  -9.7077545898680562E-03   9.9573618137409359E-01  -1.2736578384672913E-02  -5.3071642723334016E-04   9.0163195241840352E-05  -2.9744812124762338E-02  -7.4019370535712203E-03
       0.875438   2.2580545459167812E-02  -1.0650325249250704E-02   5.8955502590045206E-01  -8.0196145560570031E-01  -2.7616970355329184E-04   5.3961791031488830E-04   7.8588468587265320E-04   3.2497073198075266E-02
       0.900450   2.3751373349352369E-02  -1.1627711000161457E-02  -2.8460095125121154E-01  -9.5327874942191215E-01   2.9924143072587522E-04   6.0930335470764688E-04   3.2912685012704002E-02  -9.9178061806861010E-03
       0.925463   2.4913974640460086E-02  -1.2636900234850867E-02  -9.3176979592340547E-01  -3.4716696621665977E-01   7.4328243151666144E-04   1.3882907722754211E-04  -1.9305507246581952E-02  -3.0682014375421177E-02
       0.950475   2.6065042069665340E-02  -1.3674755833498571E-02  -8.3812408498419222E-01   5.3405621036931605E-01   6.1596862218175246E-04  -5.6816984301914601E-04  -2.5703986135555051E-02   2.8162121072022331E-02
       0.975488   2.7201472764259479E-02  -1.4738060576340256E-02  -7.8901398299826175E-02   9.9013282991200258E-01  -9.5986160478403677E-05  -9.1921517551929054E-04   3.5667025838228970E-02   1.8116691677142305E-02
       1.000500   2.8320385656916001E-02  -1.5823561038559201E-02   7.4212666547277439E-01   6.5934473403714056E-01  -8.7183376434400196E-04  -5.1891078954044532E-04   8.3074220987892876E-03  -4.1039914134818077E-02
       1.025513   2.9419135029321697E-02  -1.6928009040073379E-02   9.7287028282154953E-01  -1.9466664677423440E-01  -1.0242593653327725E-03   4.2472441340233300E-04  -4.3617480383129840E-02   3.1006039980012168E-03
       1.050525   3.0495320037499090E-02  -1.8048199853444503E-02   4.3081862003802485E-01  -8.9310877625074037E-01  -2.9579649264658230E-04   1.1698708324875285E-03   1.5285356882267492E-02   4.2925296737953963E-02
       1.075538   3.1546790194009695E-02  -1.9181006521410079E-02  -4.5268077401777046E-01  -8.8159138501047585E-01   8.2490418867711961E-04   1.0148849147651677E-03   3.8737409284909305E-02  -2.7285101924029536E-02
       1.100550   3.2571646912502090E-02  -2.0323409792942185E-02  -9.7573656395538400E-01  -1.7012539167748264E-01   1.4107286096054520E-03  -5.9232357625355238E-05  -3.8075293149110061E-02  -3.1116924093796752E-02
       1.125563   3.3568241348969872E-02  -2.1472523345692753E-02  -7.2351683088332019E-01   6.7559005623656232E-01   8.5561467935986967E-04  -1.2547660633134793E-03  -2.0432328374475315E-02   4.6657000846739960E-02
       1.150575   3.4535168891543053E-02  -2.2625614116585844E-02   1.0281988599991373E-01   9.8399191153717847E-01  -5.3054544336062577E-04  -1.5388474888088414E-03   5.2149096938171116E-02   7.3463852560831551E-03
       1.175588   3.5471260747459474E-02  -2.3780117705854403E-02   8.4661199978235657E-01   5.1088101978803657E-01  -1.6567347624010899E-03  -5.2741185271893809E-04  -7.2230393000914505E-03  -5.3875608193062037E-02
       1.200600   3.6375573144789466E-02  -2.4933648949131124E-02   9.1750922522545686E-01  -3.6728625274870369E-01  -1.5038845382216637E-03   1.0793406203308362E-03  -5.1439655514237285E-02   2.2168154217506252E-02
       1.225613   3.7247374702995099E-02  -2.6084007864848210E-02   2.5997029250275788E-01  -9.5296707235569400E-01  -3.4300662027232500E-05   1.9644616441680356E-03   3.6277740983011598E-02   4.4776257286410978E-02
       1.250625   3.8086132529166573E-02  -2.7229181279000186E-02  -6.0328458793446038E-01  -7.8155571902989707E-01   1.6460091391273192E-03   1.2703708276405156E-03   3.4177929356679689E-02  -4.8338014773414074E-02
       1.275638   3.8891497567685618E-02  -2.8367340506091559E-02  -9.8680136517175121E-01   1.0124169538684351E-02   2.1124539707652818E-03  -5.9324954004872906E-04  -5.7239207298018069E-02  -2.0289324866121998E-02
       1.300650   3.9663289674897621E-02  -2.9496835524341711E-02  -5.8659869249876662E-01   7.9305115384870739E-01   8.2601996037104202E-04  -2.1564863198947240E-03  -4.0699165382571340E-03   6.2078314437411436E-02
       1.325663   4.0401482814089403E-02  -3.0616186125866196E-02   2.7894410790941193E-01   9.4573853952450160E-01  -1.2990760848462651E-03  -2.0467446553512382E-03   6.2248417475471773E-02  -1.3273323693946302E-02
       1.350675   4.1106190677935070E-02  -3.1724070549667062E-02   9.2235369201978257E-01   3.4749822467624969E-01  -2.5317629188750632E-03  -1.8709815838118877E-04  -3.0378427125438541E-02  -5.7505860066840539E-02
       1.375688   4.1777652954165849E-02  -3.2819312117901726E-02   8.3302848052564860E-01  -5.2618850892187063E-01  -1.7348196949126390E-03   2.0063716764436457E-03  -4.8008283308498989E-02   4.5838788908517801E-02
       1.400700   4.2416222363513847E-02  -3.3900864395034702E-02   8.2387026920707554E-02  -9.8153120982736919E-01   6.0024221392704423E-04   2.6991477397066625E-03   5.8322167677650902E-02   3.4318945390208251E-02
       1.425713   4.3022352523562152E-02  -3.4967795376000997E-02  -7.3321709770400989E-01  -6.5728690629389974E-01   2.6264460068123802E-03   1.1731204164537870E-03   1.7375668216722737E-02  -6.6688008910837246E-02
       1.450725   4.3596586632689713E-02  -3.6019271184330716E-02  -9.6619730645112933E-01   1.8868165613715848E-01   2.6035598906043360E-03  -1.4630942072225395E-03  -7.0092598507721496E-02   1.5741001815016858E-03
       1.475738   4.4139546927338048E-02  -3.7054539725320031E-02  -4.3184668142723520E-01   8.8442825176110351E-01   3.9082389939073810E-04  -3.0700020969525103E-03   2.1067527752315341E-02   6.8072326821816936E-02
       1.500750   4.4651924843697920E-02  -3.8072914694064319E-02   4.4522274946387130E-01   8.7755920227259765E-01  -2.3091093522612572E-03  -2.2171180858674765E-03   6.0597015581095197E-02  -3.9542614057945881E-02
       1.525763   4.5134471810057940E-02  -3.9073760285104550E-02   9.6841504277100710E-01   1.7376683757643693E-01  -3.2593372062331549E-03   5.5081670680042763E-04  -5.5466892447303781E-02  -4.8087694227854035E-02
       1.550775   4.5587990605398643E-02  -4.0056476891588352E-02   7.2232978567137140E-01  -6.6784019383742999E-01  -1.5455559705915844E-03   3.0370754552010988E-03  -3.1396201233411650E-02   6.7467774854002863E-02
       1.575788   4.6013327239304708E-02  -4.1020488019578159E-02  -9.7431798333408440E-02  -9.7881728206320118E-01   1.5636313951060434E-03   3.1397480982929774E-03   7.4453271035968285E-02   1.1747271357487876E-02
       1.600800   4.6411363333401769E-02  -4.1965228580084564E-02  -8.3967240656539766E-01  -5.1223696962152765E-01   3.5493773201885166E-03   6.3045810585417512E-04  -9.3529352061639259E-03  -7.5712373893578169E-02
       1.625813   4.6783009010876064E-02  -4.2890134660312260E-02  -9.1480696422418795E-01   3.6121620751355971E-01   2.6885441347558920E-03  -2.5416187092494064E-03  -7.0985911464309728E-02   3.0234891027107268E-02
       1.650825   4.7129196324268471E-02  -4.3794634819137847E-02  -2.6316214964446627E-01   9.4765837789969398E-01  -4.5310784981161128E-04  -3.7647107373187717E-03   4.9200908828684921E-02   6.0501006217275770E-02
       1.675838   4.7450873269531138E-02  -4.4678142902356832E-02   5.9757358035561703E-01   7.8116866708220023E-01  -3.3728624025635432E-03  -1.9204043937493165E-03   4.4965262500693770E-02  -6.4666361969105579E-02
       1.700850   4.7748998444167350E-02  -4.5540052332606100E-02   9.8353089104109481E-01  -6.0340136368497799E-03  -3.6293986544095641E-03   1.6033813491842326E-03  -7.5295011224925240E-02  -2.5520176061624152E-02
       1.725863   4.8024536408081651E-02  -4.6379731798290247E-02   5.8796414785251461E-01  -7.8851607720306160E-01  -8.8829107887015524E-04   3.9528284657310954E-03  -3.6567423049334584E-03   8.0116768068642721E-02
       1.750875   4.8278453797487464E-02  -4.7196522245766238E-02  -2.7491669578692757E-01  -9.4446062739432768E-01   2.7023861280781338E-03   3.1258411911227447E-03   7.8617465302994280E-02  -1.8900463123030741E-02
       1.775888   4.8511716225681074E-02  -4.7989735069120326E-02  -9.1944683690440454E-01  -3.4980000743271894E-01   4.1974249345863050E-03  -3.2031995147755430E-04  -4.0331630295970609E-02  -7.0792361756815594E-02
       1.800900   4.8725285981197519E-02  -4.8758651391023602E-02  -8.3329836696082094E-01   5.2301227956132412E-01   2.2769767546174605E-03  -3.6289125511910817E-03  -5.7158012214316010E-02   5.8871276395538907E-02
       1.825913   4.8920120505794217E-02  -4.9502522334661500E-02  -8.4746906061006710E-02   9.8028343733253931E-01  -1.5915740109833508E-03  -4.0542285740376256E-03   7.2956611034770927E-02   3.8720554975915561E-02
       1.850925   4.9097171604091917E-02  -5.0220570198436607E-02   7.3136109131957805E-01   6.5839088281217406E-01  -4.2725195651558507E-03  -1.1460915808020346E-03   1.6902128259435434E-02  -8.1362122633786824E-02
       1.875938   4.9257385305821876E-02  -5.0911990459633405E-02   9.6625039847398098E-01  -1.8701385463239331E-01  -3.5104766466486025E-03   2.7969086025194730E-03  -8.3308696123739007E-02   6.5692813815667024E-03
       1.900950   4.9401702272650894E-02  -5.1575954548079617E-02   4.3297762469495166E-01  -8.8397030034727719E-01   1.6815882842048023E-04   4.5469287503736326E-03   2.9798035458766040E-02   7.8537477103572770E-02
       1.925963   4.9531058616420195E-02  -5.2211613343807882E-02  -4.4471785344779768E-01  -8.7827514361899295E-01   3.8070081509590853E-03   2.5967644867163171E-03   6.7341475183452168E-02  -5.0875994245553023E-02
       1.950975   4.9646386975949898E-02  -5.2818101361949851E-02  -9.6905437181846754E-01  -1.7420756546384017E-01   4.4012118856923627E-03  -1.5411077705720902E-03  -6.8041848751139153E-02  -5.0551334057042041E-02
       1.975988   4.9748617686588531E-02  -5.3394541592221116E-02  -7.2295072020560391E-01   6.6860470114878923E-01   1.3858506311525158E-03  -4.5064918928935816E-03  -2.9475511673545684E-02   7.9831226518447221E-02
       2.001001   4.9838679871313102E-02  -5.3940050958569338E-02   9.8153962041663725E-02   9.7996411437729380E-01  -2.8348902122851201E-03  -3.8273740423351633E-03   8.5204655999523829E-02   5.7989954778385729E-03
       2.026013   4.9917511963262627E-02  -5.4453805129613828E-02   8.4144288531447697E-01   5.1206151027440483E-01  -4.8076488207821812E-03   1.3484613035673896E-05  -1.8551638006084847E-02  -8.3642125843413809E-02
       2.051026   4.9986091798645930E-02  -5.4935253895210326E-02   9.1572760591333402E-01  -3.6323252570631670E-01  -2.8633386186329968E-03   3.9133734816143304E-03  -7.5195741829082272E-02   4.1566065543383331E-02
       2.076038   5.0045377297733430E-02  -5.5383803980321333E-02   2.6170288964556371E-01  -9.4987272518254451E-01   1.4670064993728693E-03   4.6616848270537494E-03   6.1318771105891359E-02   6.0494417139960871E-02
       2.101051   5.0096301435814859E-02  -5.5798782319016284E-02  -6.0065147822221743E-01  -7.8115521345975669E-01   4.6576133523528775E-03   1.5907364679623303E-03   4.0699549705392975E-02  -7.6132828360421623E-02
       2.126063   5.0139775082629255E-02  -5.6179447942982096E-02  -9.8545919203512045E-01   8.9433010490482159E-03   4.0657036082798886E-03  -2.8291347929408021E-03  -8.4725217484234019E-02  -1.7414799009327402E-02
       2.151076   5.0176688969452085E-02  -5.6525003401193194E-02  -5.8649274751173597E-01   7.9211307398473174E-01   1.2724777420772477E-04  -4.9796912026664718E-03   7.4431636969368251E-03   8.6321052426619485E-02
       2.176088   5.0207914755434520E-02  -5.6834605700616624E-02   2.7908324514068872E-01   9.4536630374756203E-01  -3.9586657867254791E-03  -3.0645135616148523E-03   8.0726442674191129E-02  -3.1802600676685396E-02
       2.201101   5.0234305191820691E-02  -5.7107376734334081E-02   9.2282590659120634E-01   3.4664754379355406E-01  -4.8333831641748639E-03   1.3851101940656110E-03  -5.3610377309925995E-02  -6.8353051653669991E-02
       2.226113   5.0256693411031068E-02  -5.7342413146314296E-02   8.3259713553183434E-01  -5.2791962274309101E-01  -1.7472921389686017E-03   4.7343464608970466E-03  -5.0191409643110058E-02   7.1006798610564970E-02
       2.251126   5.0275891396286486E-02  -5.7538795570217134E-02   8.0045442283594559E-02  -9.8266531613145802E-01   2.7947135519330946E-03   4.2205255144041305E-03   8.2486680296371059E-02   2.7734366309793014E-02
