# population in each left-qubit level over  time for $\ket{\Psi(t=0)} = \ket{10}$ (integrated over all cavity levels)
#        t [ns]            0            1            2            3            4
       0.000000  9.89990E-02  9.01001E-01  3.34184E-28  9.25954E-30  1.73430E-32
       0.025013  9.89985E-02  9.00999E-01  8.01080E-16  9.45363E-30  3.73772E-33
       0.050025  9.89980E-02  9.00998E-01  1.11107E-13  5.13514E-27  1.25540E-33
       0.075038  9.89975E-02  9.00996E-01  2.43094E-12  2.45784E-24  1.00080E-33
       0.100050  9.89969E-02  9.00994E-01  2.24719E-11  2.09962E-22  5.06755E-34
       0.125063  9.89964E-02  9.00992E-01  1.26975E-10  6.69993E-21  1.01014E-31
       0.150075  9.89959E-02  9.00991E-01  5.22394E-10  1.13331E-19  7.44374E-30
       0.175088  9.89954E-02  9.00989E-01  1.72262E-09  1.23139E-18  2.47663E-28
       0.200100  9.89949E-02  9.00987E-01  4.82598E-09  9.65601E-18  4.98566E-27
       0.225113  9.89943E-02  9.00986E-01  1.19303E-08  5.89509E-17  6.89523E-26
       0.250125  9.89939E-02  9.00984E-01  2.67121E-08  2.95193E-16  7.09787E-25
       0.275138  9.89934E-02  9.00982E-01  5.51896E-08  1.25850E-15  5.75296E-24
       0.300150  9.89929E-02  9.00980E-01  1.06685E-07  4.69615E-15  3.82674E-23
       0.325163  9.89924E-02  9.00978E-01  1.94994E-07  1.56642E-14  2.15575E-22
       0.350175  9.89920E-02  9.00976E-01  3.39753E-07  4.74756E-14  1.05395E-21
       0.375188  9.89917E-02  9.00974E-01  5.68011E-07  1.32457E-13  4.55946E-21
       0.400200  9.89913E-02  9.00972E-01  9.15972E-07  3.43779E-13  1.77281E-20
       0.425213  9.89911E-02  9.00970E-01  1.43088E-06  8.37166E-13  6.27505E-20
       0.450225  9.89910E-02  9.00967E-01  2.17305E-06  1.92648E-12  2.04346E-19
       0.475238  9.89910E-02  9.00963E-01  3.21792E-06  4.21428E-12  6.17665E-19
       0.500250  9.89912E-02  9.00960E-01  4.65817E-06  8.80807E-12  1.74591E-18
       0.525263  9.89917E-02  9.00955E-01  6.60582E-06  1.76645E-11  4.64452E-18
       0.550275  9.89924E-02  9.00949E-01  9.19419E-06  3.41188E-11  1.16918E-17
       0.575288  9.89935E-02  9.00943E-01  1.25798E-05  6.36712E-11  2.79831E-17
       0.600300  9.89951E-02  9.00934E-01  1.69437E-05  1.15123E-10  6.39396E-17
       0.625313  9.89972E-02  9.00925E-01  2.24935E-05  2.02165E-10  1.39980E-16
       0.650325  9.89999E-02  9.00913E-01  2.94635E-05  3.45548E-10  2.94544E-16
       0.675338  9.90034E-02  9.00898E-01  3.81159E-05  5.75964E-10  5.97364E-16
       0.700350  9.90079E-02  9.00881E-01  4.87404E-05  9.37768E-10  1.17059E-15
       0.725363  9.90133E-02  9.00860E-01  6.16543E-05  1.49369E-09  2.22127E-15
       0.750375  9.90200E-02  9.00836E-01  7.72010E-05  2.33064E-09  4.08963E-15
       0.775388  9.90280E-02  9.00807E-01  9.57487E-05  3.56665E-09  7.31840E-15
       0.800400  9.90375E-02  9.00773E-01  1.17688E-04  5.35904E-09  1.27493E-14
       0.825413  9.90488E-02  9.00734E-01  1.43428E-04  7.91371E-09  2.16530E-14
       0.850425  9.90621E-02  9.00688E-01  1.73396E-04  1.14954E-08  3.58978E-14
       0.875438  9.90775E-02  9.00636E-01  2.08028E-04  1.64387E-08  5.81632E-14
       0.900450  9.90953E-02  9.00576E-01  2.47770E-04  2.31596E-08  9.21985E-14
       0.925463  9.91157E-02  9.00508E-01  2.93065E-04  3.21663E-08  1.43126E-13
       0.950475  9.91389E-02  9.00431E-01  3.44357E-04  4.40702E-08  2.17781E-13
       0.975488  9.91652E-02  9.00345E-01  4.02076E-04  5.95943E-08  3.25076E-13
       1.000500  9.91947E-02  9.00249E-01  4.66636E-04  7.95803E-08  4.76369E-13
       1.025513  9.92277E-02  9.00141E-01  5.38426E-04  1.04991E-07  6.85805E-13
       1.050525  9.92645E-02  9.00023E-01  6.17807E-04  1.36911E-07  9.70595E-13
       1.075538  9.93052E-02  8.99893E-01  7.05102E-04  1.76538E-07  1.35119E-12
       1.100550  9.93500E-02  8.99750E-01  8.00589E-04  2.25172E-07  1.85133E-12
       1.125563  9.93992E-02  8.99594E-01  9.04499E-04  2.84197E-07  2.49786E-12
       1.150575  9.94528E-02  8.99426E-01  1.01701E-03  3.55055E-07  3.32032E-12
       1.175588  9.95111E-02  8.99244E-01  1.13822E-03  4.39213E-07  4.35033E-12
       1.200600  9.95742E-02  8.99048E-01  1.26820E-03  5.38121E-07  5.62059E-12
       1.225613  9.96423E-02  8.98839E-01  1.40691E-03  6.53168E-07  7.16367E-12
       1.250625  9.97153E-02  8.98616E-01  1.55426E-03  7.85628E-07  9.01050E-12
       1.275638  9.97934E-02  8.98380E-01  1.71009E-03  9.36604E-07  1.11886E-11
       1.300650  9.98767E-02  8.98130E-01  1.87414E-03  1.10697E-06  1.37204E-11
       1.325663  9.99652E-02  8.97867E-01  2.04611E-03  1.29730E-06  1.66208E-11
       1.350675  1.00059E-01  8.97591E-01  2.22558E-03  1.50784E-06  1.98960E-11
       1.375688  1.00158E-01  8.97303E-01  2.41208E-03  1.73840E-06  2.35410E-11
       1.400700  1.00262E-01  8.97003E-01  2.60507E-03  1.98836E-06  2.75385E-11
       1.425713  1.00371E-01  8.96693E-01  2.80392E-03  2.25661E-06  3.18580E-11
       1.450725  1.00485E-01  8.96372E-01  3.00794E-03  2.54150E-06  3.64548E-11
       1.475738  1.00604E-01  8.96042E-01  3.21639E-03  2.84086E-06  4.12705E-11
       1.500750  1.00727E-01  8.95704E-01  3.42845E-03  3.15197E-06  4.62332E-11
       1.525763  1.00855E-01  8.95358E-01  3.64325E-03  3.47161E-06  5.12595E-11
       1.550775  1.00988E-01  8.95006E-01  3.85989E-03  3.79606E-06  5.62561E-11
       1.575788  1.01125E-01  8.94649E-01  4.07742E-03  4.12115E-06  6.11225E-11
       1.600800  1.01265E-01  8.94288E-01  4.29485E-03  4.44237E-06  6.57545E-11
       1.625813  1.01409E-01  8.93925E-01  4.51118E-03  4.75490E-06  7.00473E-11
       1.650825  1.01557E-01  8.93561E-01  4.72536E-03  5.05375E-06  7.38994E-11
       1.675838  1.01708E-01  8.93196E-01  4.93636E-03  5.33384E-06  7.72167E-11
       1.700850  1.01862E-01  8.92833E-01  5.14314E-03  5.59011E-06  7.99156E-11
       1.725863  1.02018E-01  8.92472E-01  5.34465E-03  5.81768E-06  8.19266E-11
       1.750875  1.02177E-01  8.92116E-01  5.53987E-03  6.01195E-06  8.31971E-11
       1.775888  1.02337E-01  8.91765E-01  5.72779E-03  6.16872E-06  8.36932E-11
       1.800900  1.02499E-01  8.91421E-01  5.90743E-03  6.28431E-06  8.34013E-11
       1.825913  1.02663E-01  8.91085E-01  6.07783E-03  6.35570E-06  8.23288E-11
       1.850925  1.02827E-01  8.90758E-01  6.23809E-03  6.38055E-06  8.05031E-11
       1.875938  1.02992E-01  8.90441E-01  6.38736E-03  6.35738E-06  7.79711E-11
       1.900950  1.03158E-01  8.90136E-01  6.52482E-03  6.28554E-06  7.47967E-11
       1.925963  1.03323E-01  8.89843E-01  6.64973E-03  6.16531E-06  7.10586E-11
       1.950975  1.03488E-01  8.89564E-01  6.76140E-03  5.99790E-06  6.68469E-11
       1.975988  1.03653E-01  8.89300E-01  6.85923E-03  5.78544E-06  6.22595E-11
       2.001001  1.03817E-01  8.89050E-01  6.94267E-03  5.53094E-06  5.73988E-11
       2.026013  1.03979E-01  8.88817E-01  7.01127E-03  5.23829E-06  5.23675E-11
       2.051026  1.04140E-01  8.88601E-01  7.06465E-03  4.91211E-06  4.72652E-11
       2.076038  1.04300E-01  8.88401E-01  7.10251E-03  4.55774E-06  4.21857E-11
       2.101051  1.04457E-01  8.88220E-01  7.12466E-03  4.18107E-06  3.72138E-11
       2.126063  1.04613E-01  8.88056E-01  7.13097E-03  3.78844E-06  3.24242E-11
       2.151076  1.04766E-01  8.87910E-01  7.12143E-03  3.38647E-06  2.78796E-11
       2.176088  1.04917E-01  8.87783E-01  7.09609E-03  2.98196E-06  2.36302E-11
       2.201101  1.05064E-01  8.87674E-01  7.05512E-03  2.58167E-06  1.97136E-11
       2.226113  1.05210E-01  8.87584E-01  6.99874E-03  2.19225E-06  1.61552E-11
       2.251126  1.05352E-01  8.87511E-01  6.92729E-03  1.82005E-06  1.29690E-11
       2.276138  1.05491E-01  8.87456E-01  6.84118E-03  1.47099E-06  1.01595E-11
       2.301151  1.05627E-01  8.87418E-01  6.74090E-03  1.15045E-06  7.72315E-12
       2.326163  1.05760E-01  8.87397E-01  6.62701E-03  8.63182E-07  5.65026E-12
       2.351176  1.05890E-01  8.87392E-01  6.50015E-03  6.13195E-07  3.92719E-12
       2.376188  1.06016E-01  8.87402E-01  6.36104E-03  4.03710E-07  2.53813E-12
       2.401201  1.06140E-01  8.87427E-01  6.21045E-03  2.37115E-07  1.46685E-12
       2.426213  1.06260E-01  8.87466E-01  6.04919E-03  1.14942E-07  6.98187E-13
       2.451226  1.06377E-01  8.87518E-01  5.87817E-03  3.78691E-08  2.19089E-13
       2.476238  1.06492E-01  8.87581E-01  5.69830E-03  5.74496E-09  1.94025E-14
       2.501251  1.06603E-01  8.87655E-01  5.51056E-03  1.76305E-08  9.22021E-14
       2.526263  1.06712E-01  8.87738E-01  5.31595E-03  7.18605E-08  4.33796E-13
       2.551276  1.06819E-01  8.87829E-01  5.11551E-03  1.66120E-07  1.04341E-12
       2.576288  1.06923E-01  8.87928E-01  4.91029E-03  2.97535E-07  1.92263E-12
       2.601301  1.07026E-01  8.88032E-01  4.70137E-03  4.62772E-07  3.07466E-12
       2.626313  1.07126E-01  8.88140E-01  4.48983E-03  6.58144E-07  4.50347E-12
       2.651326  1.07225E-01  8.88252E-01  4.27675E-03  8.79723E-07  6.21299E-12
       2.676338  1.07323E-01  8.88365E-01  4.06324E-03  1.12345E-06  8.20631E-12
       2.701351  1.07420E-01  8.88478E-01  3.85035E-03  1.38526E-06  1.04850E-11
       2.726363  1.07516E-01  8.88590E-01  3.63917E-03  1.66115E-06  1.30488E-11
       2.751376  1.07612E-01  8.88700E-01  3.43075E-03  1.94731E-06  1.58951E-11
       2.776388  1.07708E-01  8.88806E-01  3.22612E-03  2.24022E-06  1.90190E-11
       2.801401  1.07805E-01  8.88907E-01  3.02628E-03  2.53668E-06  2.24138E-11
       2.826413  1.07902E-01  8.89000E-01  2.83221E-03  2.83393E-06  2.60711E-11
       2.851426  1.08001E-01  8.89086E-01  2.64487E-03  3.12965E-06  2.99817E-11
       2.876438  1.08102E-01  8.89163E-01  2.46516E-03  3.42204E-06  3.41362E-11
       2.901451  1.08204E-01  8.89229E-01  2.29395E-03  3.70984E-06  3.85264E-11
       2.926463  1.08310E-01  8.89282E-01  2.13210E-03  3.99229E-06  4.31455E-11
       2.951476  1.08418E-01  8.89323E-01  1.98039E-03  4.26921E-06  4.79903E-11
       2.976488  1.08530E-01  8.89349E-01  1.83959E-03  4.54092E-06  5.30611E-11
       3.001501  1.08646E-01  8.89359E-01  1.71041E-03  4.80826E-06  5.83635E-11
       3.026513  1.08767E-01  8.89353E-01  1.59353E-03  5.07252E-06  6.39090E-11
       3.051526  1.08892E-01  8.89329E-01  1.48958E-03  5.33545E-06  6.97155E-11
       3.076538  1.09024E-01  8.89285E-01  1.39916E-03  5.59916E-06  7.58082E-11
       3.101551  1.09161E-01  8.89222E-01  1.32282E-03  5.86612E-06  8.22198E-11
       3.126563  1.09304E-01  8.89137E-01  1.26108E-03  6.13908E-06  8.89908E-11
       3.151576  1.09455E-01  8.89030E-01  1.21442E-03  6.42103E-06  9.61694E-11
       3.176588  1.09614E-01  8.88900E-01  1.18329E-03  6.71517E-06  1.03811E-10
       3.201601  1.09780E-01  8.88746E-01  1.16811E-03  7.02480E-06  1.11979E-10
       3.226613  1.09955E-01  8.88567E-01  1.16925E-03  7.35334E-06  1.20742E-10
       3.251626  1.10139E-01  8.88363E-01  1.18709E-03  7.70426E-06  1.30175E-10
       3.276638  1.10332E-01  8.88132E-01  1.22194E-03  8.08102E-06  1.40358E-10
       3.301651  1.10535E-01  8.87873E-01  1.27413E-03  8.48706E-06  1.51376E-10
       3.326663  1.10749E-01  8.87587E-01  1.34393E-03  8.92576E-06  1.63315E-10
       3.351676  1.10973E-01  8.87272E-01  1.43161E-03  9.40038E-06  1.76265E-10
       3.376688  1.11208E-01  8.86928E-01  1.53743E-03  9.91409E-06  1.90316E-10
       3.401701  1.11455E-01  8.86554E-01  1.66161E-03  1.04699E-05  2.05556E-10
       3.426713  1.11714E-01  8.86150E-01  1.80437E-03  1.10705E-05  2.22074E-10
       3.451726  1.11984E-01  8.85715E-01  1.96592E-03  1.17187E-05  2.39954E-10
       3.476738  1.12267E-01  8.85248E-01  2.14644E-03  1.24167E-05  2.59277E-10
       3.501751  1.12562E-01  8.84750E-01  2.34609E-03  1.31667E-05  2.80118E-10
       3.526763  1.12871E-01  8.84219E-01  2.56504E-03  1.39704E-05  3.02542E-10
       3.551776  1.13192E-01  8.83656E-01  2.80341E-03  1.48294E-05  3.26609E-10
       3.576788  1.13526E-01  8.83061E-01  3.06131E-03  1.57446E-05  3.52363E-10
       3.601801  1.13873E-01  8.82433E-01  3.33884E-03  1.67169E-05  3.79840E-10
       3.626813  1.14233E-01  8.81772E-01  3.63606E-03  1.77464E-05  4.09057E-10
       3.651826  1.14607E-01  8.81078E-01  3.95300E-03  1.88328E-05  4.40013E-10
       3.676838  1.14993E-01  8.80351E-01  4.28966E-03  1.99754E-05  4.72688E-10
       3.701851  1.15393E-01  8.79591E-01  4.64600E-03  2.11726E-05  5.07040E-10
       3.726863  1.15805E-01  8.78799E-01  5.02194E-03  2.24224E-05  5.42998E-10
       3.751876  1.16230E-01  8.77974E-01  5.41736E-03  2.37219E-05  5.80465E-10
       3.776888  1.16668E-01  8.77118E-01  5.83207E-03  2.50676E-05  6.19311E-10
       3.801901  1.17119E-01  8.76230E-01  6.26584E-03  2.64550E-05  6.59375E-10
       3.826913  1.17581E-01  8.75311E-01  6.71838E-03  2.78789E-05  7.00458E-10
       3.851926  1.18055E-01  8.74362E-01  7.18933E-03  2.93331E-05  7.42324E-10
       3.876938  1.18541E-01  8.73383E-01  7.67825E-03  3.08104E-05  7.84700E-10
       3.901951  1.19039E-01  8.72375E-01  8.18466E-03  3.23030E-05  8.27272E-10
       3.926963  1.19547E-01  8.71340E-01  8.70796E-03  3.38018E-05  8.69691E-10
       3.951976  1.20065E-01  8.70278E-01  9.24750E-03  3.52968E-05  9.11568E-10
       3.976988  1.20594E-01  8.69190E-01  9.80254E-03  3.67773E-05  9.52484E-10
       4.002001  1.21132E-01  8.68078E-01  1.03722E-02  3.82316E-05  9.91987E-10
       4.027014  1.21680E-01  8.66943E-01  1.09557E-02  3.96472E-05  1.02960E-09
       4.052026  1.22236E-01  8.65787E-01  1.15519E-02  4.10110E-05  1.06484E-09
       4.077039  1.22801E-01  8.64610E-01  1.21597E-02  4.23093E-05  1.09719E-09
       4.102051  1.23373E-01  8.63416E-01  1.27780E-02  4.35280E-05  1.12615E-09
       4.127064  1.23953E-01  8.62205E-01  1.34054E-02  4.46525E-05  1.15122E-09
       4.152076  1.24539E-01  8.60980E-01  1.40407E-02  4.56686E-05  1.17194E-09
       4.177089  1.25132E-01  8.59742E-01  1.46823E-02  4.65617E-05  1.18785E-09
       4.202101  1.25731E-01  8.58493E-01  1.53287E-02  4.73179E-05  1.19854E-09
       4.227114  1.26335E-01  8.57237E-01  1.59782E-02  4.79238E-05  1.20368E-09
       4.252126  1.26944E-01  8.55974E-01  1.66293E-02  4.83669E-05  1.20296E-09
       4.277139  1.27557E-01  8.54707E-01  1.72801E-02  4.86357E-05  1.19620E-09
       4.302151  1.28174E-01  8.53439E-01  1.79287E-02  4.87201E-05  1.18325E-09
       4.327164  1.28794E-01  8.52172E-01  1.85733E-02  4.86117E-05  1.16410E-09
       4.352176  1.29416E-01  8.50909E-01  1.92120E-02  4.83039E-05  1.13879E-09
       4.377189  1.30041E-01  8.49652E-01  1.98427E-02  4.77924E-05  1.10750E-09
       4.402201  1.30667E-01  8.48403E-01  2.04635E-02  4.70749E-05  1.07048E-09
       4.427214  1.31295E-01  8.47165E-01  2.10722E-02  4.61520E-05  1.02811E-09
       4.452226  1.31923E-01  8.45940E-01  2.16670E-02  4.50267E-05  9.80831E-10
       4.477239  1.32552E-01  8.44732E-01  2.22456E-02  4.37047E-05  9.29190E-10
       4.502251  1.33180E-01  8.43542E-01  2.28061E-02  4.21947E-05  8.73804E-10
       4.527264  1.33808E-01  8.42373E-01  2.33465E-02  4.05082E-05  8.15355E-10
       4.552276  1.34435E-01  8.41228E-01  2.38648E-02  3.86593E-05  7.54572E-10
       4.577289  1.35060E-01  8.40108E-01  2.43590E-02  3.66650E-05  6.92223E-10
       4.602301  1.35683E-01  8.39016E-01  2.48272E-02  3.45445E-05  6.29091E-10
       4.627314  1.36304E-01  8.37954E-01  2.52678E-02  3.23197E-05  5.65962E-10
       4.652326  1.36923E-01  8.36924E-01  2.56789E-02  3.00142E-05  5.03611E-10
       4.677339  1.37538E-01  8.35929E-01  2.60589E-02  2.76534E-05  4.42779E-10
       4.702351  1.38151E-01  8.34969E-01  2.64063E-02  2.52639E-05  3.84168E-10
       4.727364  1.38759E-01  8.34047E-01  2.67197E-02  2.28734E-05  3.28422E-10
       4.752376  1.39364E-01  8.33164E-01  2.69978E-02  2.05099E-05  2.76122E-10
       4.777389  1.39965E-01  8.32321E-01  2.72395E-02  1.82014E-05  2.27773E-10
       4.802401  1.40562E-01  8.31520E-01  2.74439E-02  1.59755E-05  1.83802E-10
       4.827414  1.41154E-01  8.30762E-01  2.76100E-02  1.38586E-05  1.44552E-10
       4.852426  1.41741E-01  8.30047E-01  2.77371E-02  1.18759E-05  1.10283E-10
       4.877439  1.42323E-01  8.29377E-01  2.78248E-02  1.00506E-05  8.11715E-11
       4.902451  1.42899E-01  8.28752E-01  2.78727E-02  8.40351E-06  5.73115E-11
       4.927464  1.43471E-01  8.28171E-01  2.78806E-02  6.95265E-06  3.87210E-11
       4.952476  1.44037E-01  8.27636E-01  2.78485E-02  5.71308E-06  2.53457E-11
       4.977489  1.44597E-01  8.27147E-01  2.77765E-02  4.69646E-06  1.70644E-11
       5.002501  1.45151E-01  8.26702E-01  2.76651E-02  3.91092E-06  1.36962E-11
       5.027514  1.45700E-01  8.26303E-01  2.75147E-02  3.36089E-06  1.50064E-11
       5.052526  1.46242E-01  8.25947E-01  2.73259E-02  3.04707E-06  2.07138E-11
       5.077539  1.46778E-01  8.25635E-01  2.70997E-02  2.96641E-06  3.04975E-11
       5.102551  1.47307E-01  8.25366E-01  2.68370E-02  3.11226E-06  4.40032E-11
       5.127564  1.47830E-01  8.25138E-01  2.65390E-02  3.47450E-06  6.08502E-11
       5.152576  1.48346E-01  8.24951E-01  2.62070E-02  4.03983E-06  8.06378E-11
       5.177589  1.48856E-01  8.24803E-01  2.58424E-02  4.79203E-06  1.02951E-10
       5.202601  1.49358E-01  8.24693E-01  2.54468E-02  5.71239E-06  1.27369E-10
       5.227614  1.49854E-01  8.24619E-01  2.50219E-02  6.78009E-06  1.53466E-10
       5.252626  1.50342E-01  8.24579E-01  2.45694E-02  7.97265E-06  1.80824E-10
       5.277639  1.50824E-01  8.24572E-01  2.40914E-02  9.26643E-06  2.09031E-10
       5.302651  1.51298E-01  8.24595E-01  2.35898E-02  1.06371E-05  2.37691E-10
       5.327664  1.51766E-01  8.24647E-01  2.30666E-02  1.20602E-05  2.66429E-10
       5.352676  1.52226E-01  8.24726E-01  2.25241E-02  1.35114E-05  2.94889E-10
       5.377689  1.52679E-01  8.24828E-01  2.19644E-02  1.49672E-05  3.22746E-10
       5.402701  1.53125E-01  8.24953E-01  2.13898E-02  1.64054E-05  3.49701E-10
       5.427714  1.53564E-01  8.25097E-01  2.08026E-02  1.78050E-05  3.75489E-10
       5.452726  1.53996E-01  8.25259E-01  2.02051E-02  1.91471E-05  3.99875E-10
       5.477739  1.54421E-01  8.25435E-01  1.95997E-02  2.04148E-05  4.22660E-10
       5.502751  1.54840E-01  8.25624E-01  1.89886E-02  2.15935E-05  4.43676E-10
       5.527764  1.55252E-01  8.25823E-01  1.83743E-02  2.26712E-05  4.62787E-10
       5.552776  1.55658E-01  8.26028E-01  1.77591E-02  2.36383E-05  4.79891E-10
       5.577789  1.56058E-01  8.26239E-01  1.71453E-02  2.44876E-05  4.94911E-10
       5.602801  1.56453E-01  8.26451E-01  1.65351E-02  2.52146E-05  5.07801E-10
       5.627814  1.56842E-01  8.26663E-01  1.59308E-02  2.58172E-05  5.18538E-10
       5.652826  1.57226E-01  8.26872E-01  1.53347E-02  2.62953E-05  5.27123E-10
       5.677839  1.57606E-01  8.27076E-01  1.47488E-02  2.66510E-05  5.33579E-10
       5.702851  1.57981E-01  8.27272E-01  1.41753E-02  2.68884E-05  5.37948E-10
       5.727864  1.58352E-01  8.27457E-01  1.36161E-02  2.70128E-05  5.40286E-10
       5.752876  1.58721E-01  8.27629E-01  1.30732E-02  2.70311E-05  5.40666E-10
       5.777889  1.59086E-01  8.27786E-01  1.25484E-02  2.69513E-05  5.39175E-10
       5.802901  1.59448E-01  8.27926E-01  1.20436E-02  2.67819E-05  5.35907E-10
       5.827914  1.59809E-01  8.28046E-01  1.15604E-02  2.65323E-05  5.30968E-10
       5.852926  1.60168E-01  8.28145E-01  1.11004E-02  2.62118E-05  5.24470E-10
       5.877939  1.60526E-01  8.28221E-01  1.06650E-02  2.58299E-05  5.16529E-10
       5.902951  1.60883E-01  8.28271E-01  1.02557E-02  2.53962E-05  5.07262E-10
       5.927964  1.61240E-01  8.28294E-01  9.87378E-03  2.49196E-05  4.96791E-10
       5.952976  1.61596E-01  8.28288E-01  9.52030E-03  2.44086E-05  4.85231E-10
       5.977989  1.61954E-01  8.28253E-01  9.19634E-03  2.38713E-05  4.72697E-10
       6.003002  1.62312E-01  8.28186E-01  8.90282E-03  2.33150E-05  4.59299E-10
       6.028014  1.62671E-01  8.28088E-01  8.64053E-03  2.27461E-05  4.45141E-10
       6.053027  1.63032E-01  8.27955E-01  8.41015E-03  2.21705E-05  4.30318E-10
       6.078039  1.63394E-01  8.27789E-01  8.21221E-03  2.15931E-05  4.14920E-10
