# population in each cavity level over  time for $\ket{\Psi(t=0)} = \ket{11}$ (integrated over all qubit levels)
#        t [ns]            0            1            2            3            4            5
       0.000000  8.79579E-01  1.13007E-01  7.41426E-03  1.33548E-31  6.79814E-32  4.07789E-33
       0.025013  8.79575E-01  1.13006E-01  7.41415E-03  3.26821E-13  4.80122E-24  3.56890E-34
       0.050025  8.79572E-01  1.13005E-01  7.41403E-03  3.12415E-11  4.38820E-20  2.27049E-29
       0.075038  8.79569E-01  1.13004E-01  7.41392E-03  3.67532E-10  6.07325E-18  3.33853E-26
       0.100050  8.79565E-01  1.13003E-01  7.41382E-03  2.03313E-09  1.85852E-16  5.05637E-24
       0.125063  8.79562E-01  1.13002E-01  7.41375E-03  7.52987E-09  2.54928E-15  2.29775E-22
       0.150075  8.79558E-01  1.13001E-01  7.41376E-03  2.16997E-08  2.11717E-14  4.93270E-21
       0.175088  8.79554E-01  1.13001E-01  7.41391E-03  5.26388E-08  1.24584E-13  6.34042E-20
       0.200100  8.79548E-01  1.13001E-01  7.41431E-03  1.12591E-07  5.69975E-13  5.61177E-19
       0.225113  8.79541E-01  1.13003E-01  7.41510E-03  2.18763E-07  2.15171E-12  3.73999E-18
       0.250125  8.79532E-01  1.13006E-01  7.41648E-03  3.94002E-07  6.97934E-12  1.99432E-17
       0.275138  8.79519E-01  1.13012E-01  7.41869E-03  6.67318E-07  2.00192E-11  8.88357E-17
       0.300150  8.79502E-01  1.13021E-01  7.42204E-03  1.07419E-06  5.18667E-11  3.41200E-16
       0.325163  8.79478E-01  1.13034E-01  7.42689E-03  1.65669E-06  1.23345E-10  1.15736E-15
       0.350175  8.79447E-01  1.13053E-01  7.43363E-03  2.46333E-06  2.72627E-10  3.53202E-15
       0.375188  8.79406E-01  1.13079E-01  7.44274E-03  3.54878E-06  5.65614E-10  9.84087E-15
       0.400200  8.79354E-01  1.13114E-01  7.45473E-03  4.97327E-06  1.11028E-09  2.53280E-14
       0.425213  8.79288E-01  1.13158E-01  7.47013E-03  6.80188E-06  2.07555E-09  6.07963E-14
       0.450225  8.79205E-01  1.13215E-01  7.48952E-03  9.10363E-06  3.71497E-09  1.37176E-13
       0.475238  8.79104E-01  1.13284E-01  7.51350E-03  1.19504E-05  6.39523E-09  2.92849E-13
       0.500250  8.78982E-01  1.13369E-01  7.54268E-03  1.54156E-05  1.06288E-08  5.94783E-13
       0.525263  8.78836E-01  1.13471E-01  7.57764E-03  1.95732E-05  1.71101E-08  1.15462E-12
       0.550275  8.78665E-01  1.13591E-01  7.61898E-03  2.44959E-05  2.67521E-08  2.15081E-12
       0.575288  8.78466E-01  1.13732E-01  7.66723E-03  3.02538E-05  4.07235E-08  3.85759E-12
       0.600300  8.78237E-01  1.13894E-01  7.72290E-03  3.69130E-05  6.04810E-08  6.68114E-12
       0.625313  8.77977E-01  1.14079E-01  7.78643E-03  4.45339E-05  8.77949E-08  1.12022E-11
       0.650325  8.77683E-01  1.14287E-01  7.85819E-03  5.31698E-05  1.24763E-07  1.82235E-11
       0.675338  8.77356E-01  1.14520E-01  7.93844E-03  6.28650E-05  1.73813E-07  2.88185E-11
       0.700350  8.76993E-01  1.14778E-01  8.02738E-03  7.36538E-05  2.37681E-07  4.43771E-11
       0.725363  8.76596E-01  1.15061E-01  8.12506E-03  8.55585E-05  3.19376E-07  6.66419E-11
       0.750375  8.76165E-01  1.15368E-01  8.23143E-03  9.85885E-05  4.22114E-07  9.77272E-11
       0.775388  8.75700E-01  1.15700E-01  8.34632E-03  1.12739E-04  5.49238E-07  1.40114E-10
       0.800400  8.75203E-01  1.16054E-01  8.46940E-03  1.27990E-04  7.04102E-07  1.96613E-10
       0.825413  8.74676E-01  1.16429E-01  8.60024E-03  1.44305E-04  8.89944E-07  2.70291E-10
       0.850425  8.74121E-01  1.16824E-01  8.73826E-03  1.61631E-04  1.10974E-06  3.64355E-10
       0.875438  8.73541E-01  1.17236E-01  8.88275E-03  1.79899E-04  1.36604E-06  4.81999E-10
       0.900450  8.72940E-01  1.17663E-01  9.03289E-03  1.99023E-04  1.66083E-06  6.26217E-10
       0.925463  8.72322E-01  1.18101E-01  9.18774E-03  2.18900E-04  1.99535E-06  7.99587E-10
       0.950475  8.71690E-01  1.18549E-01  9.34627E-03  2.39412E-04  2.36995E-06  1.00405E-09
       0.975488  8.71050E-01  1.19002E-01  9.50736E-03  2.60427E-04  2.78402E-06  1.24069E-09
       1.000500  8.70407E-01  1.19456E-01  9.66983E-03  2.81801E-04  3.23586E-06  1.50954E-09
       1.025513  8.69764E-01  1.19909E-01  9.83245E-03  3.03380E-04  3.72266E-06  1.80944E-09
       1.050525  8.69128E-01  1.20357E-01  9.99398E-03  3.25001E-04  4.24049E-06  2.13794E-09
       1.075538  8.68503E-01  1.20796E-01  1.01531E-02  3.46494E-04  4.78436E-06  2.49125E-09
       1.100550  8.67895E-01  1.21223E-01  1.03087E-02  3.67690E-04  5.34830E-06  2.86434E-09
       1.125563  8.67307E-01  1.21634E-01  1.04595E-02  3.88417E-04  5.92552E-06  3.25104E-09
       1.150575  8.66745E-01  1.22026E-01  1.06043E-02  4.08506E-04  6.50853E-06  3.64423E-09
       1.175588  8.66212E-01  1.22397E-01  1.07420E-02  4.27794E-04  7.08943E-06  4.03611E-09
       1.200600  8.65712E-01  1.22743E-01  1.08717E-02  4.46127E-04  7.66003E-06  4.41848E-09
       1.225613  8.65250E-01  1.23062E-01  1.09924E-02  4.63359E-04  8.21216E-06  4.78309E-09
       1.250625  8.64827E-01  1.23353E-01  1.11034E-02  4.79360E-04  8.73785E-06  5.12191E-09
       1.275638  8.64446E-01  1.23613E-01  1.12039E-02  4.94013E-04  9.22959E-06  5.42750E-09
       1.300650  8.64109E-01  1.23842E-01  1.12934E-02  5.07217E-04  9.68049E-06  5.69324E-09
       1.325663  8.63818E-01  1.24038E-01  1.13716E-02  5.18890E-04  1.00845E-05  5.91355E-09
       1.350675  8.63573E-01  1.24202E-01  1.14380E-02  5.28967E-04  1.04364E-05  6.08412E-09
       1.375688  8.63375E-01  1.24332E-01  1.14926E-02  5.37401E-04  1.07323E-05  6.20198E-09
       1.400700  8.63223E-01  1.24430E-01  1.15353E-02  5.44166E-04  1.09691E-05  6.26557E-09
       1.425713  8.63117E-01  1.24495E-01  1.15661E-02  5.49253E-04  1.11451E-05  6.27470E-09
       1.450725  8.63056E-01  1.24528E-01  1.15853E-02  5.52674E-04  1.12597E-05  6.23057E-09
       1.475738  8.63038E-01  1.24532E-01  1.15931E-02  5.54454E-04  1.13132E-05  6.13555E-09
       1.500750  8.63061E-01  1.24507E-01  1.15901E-02  5.54639E-04  1.13073E-05  5.99312E-09
       1.525763  8.63122E-01  1.24456E-01  1.15767E-02  5.53288E-04  1.12443E-05  5.80768E-09
       1.550775  8.63220E-01  1.24380E-01  1.15534E-02  5.50473E-04  1.11276E-05  5.58432E-09
       1.575788  8.63350E-01  1.24281E-01  1.15211E-02  5.46281E-04  1.09612E-05  5.32866E-09
       1.600800  8.63510E-01  1.24163E-01  1.14804E-02  5.40806E-04  1.07497E-05  5.04663E-09
       1.625813  8.63696E-01  1.24028E-01  1.14322E-02  5.34155E-04  1.04979E-05  4.74426E-09
       1.650825  8.63904E-01  1.23878E-01  1.13773E-02  5.26438E-04  1.02114E-05  4.42757E-09
       1.675838  8.64130E-01  1.23717E-01  1.13165E-02  5.17773E-04  9.89548E-06  4.10233E-09
       1.700850  8.64370E-01  1.23548E-01  1.12509E-02  5.08283E-04  9.55575E-06  3.77396E-09
       1.725863  8.64619E-01  1.23374E-01  1.11814E-02  4.98090E-04  9.19768E-06  3.44743E-09
       1.750875  8.64875E-01  1.23197E-01  1.11090E-02  4.87319E-04  8.82659E-06  3.12719E-09
       1.775888  8.65131E-01  1.23022E-01  1.10345E-02  4.76096E-04  8.44756E-06  2.81705E-09
       1.800900  8.65385E-01  1.22851E-01  1.09590E-02  4.64544E-04  8.06538E-06  2.52023E-09
       1.825913  8.65632E-01  1.22687E-01  1.08834E-02  4.52783E-04  7.68448E-06  2.23929E-09
       1.850925  8.65868E-01  1.22533E-01  1.08087E-02  4.40930E-04  7.30889E-06  1.97620E-09
       1.875938  8.66089E-01  1.22393E-01  1.07356E-02  4.29100E-04  6.94225E-06  1.73230E-09
       1.900950  8.66291E-01  1.22268E-01  1.06653E-02  4.17401E-04  6.58776E-06  1.50841E-09
       1.925963  8.66472E-01  1.22162E-01  1.05983E-02  4.05938E-04  6.24819E-06  1.30486E-09
       1.950975  8.66626E-01  1.22077E-01  1.05357E-02  3.94808E-04  5.92593E-06  1.12155E-09
       1.975988  8.66752E-01  1.22015E-01  1.04780E-02  3.84106E-04  5.62293E-06  9.58028E-10
       2.001001  8.66846E-01  1.21979E-01  1.04260E-02  3.73919E-04  5.34081E-06  8.13535E-10
       2.026013  8.66906E-01  1.21969E-01  1.03804E-02  3.64326E-04  5.08079E-06  6.87142E-10
       2.051026  8.66930E-01  1.21989E-01  1.03417E-02  3.55397E-04  4.84367E-06  5.77862E-10
       2.076038  8.66916E-01  1.22038E-01  1.03104E-02  3.47195E-04  4.62999E-06  4.84421E-10
       2.101051  8.66862E-01  1.22118E-01  1.02869E-02  3.39778E-04  4.44016E-06  4.05439E-10
       2.126063  8.66767E-01  1.22230E-01  1.02716E-02  3.33200E-04  4.27441E-06  3.39557E-10
       2.151076  8.66631E-01  1.22375E-01  1.02648E-02  3.27513E-04  4.13292E-06  2.85502E-10
       2.176088  8.66452E-01  1.22552E-01  1.02669E-02  3.22762E-04  4.01578E-06  2.42123E-10
       2.201101  8.66230E-01  1.22762E-01  1.02780E-02  3.18989E-04  3.92307E-06  2.08410E-10
       2.226113  8.65965E-01  1.23005E-01  1.02984E-02  3.16230E-04  3.85485E-06  1.83515E-10
       2.251126  8.65656E-01  1.23281E-01  1.03281E-02  3.14518E-04  3.81126E-06  1.66761E-10
       2.276138  8.65306E-01  1.23588E-01  1.03673E-02  3.13883E-04  3.79248E-06  1.57653E-10
       2.301151  8.64913E-01  1.23927E-01  1.04159E-02  3.14349E-04  3.79877E-06  1.55889E-10
       2.326163  8.64479E-01  1.24297E-01  1.04740E-02  3.15935E-04  3.83050E-06  1.61367E-10
       2.351176  8.64005E-01  1.24696E-01  1.05414E-02  3.18658E-04  3.88818E-06  1.74199E-10
       2.376188  8.63493E-01  1.25123E-01  1.06180E-02  3.22528E-04  3.97241E-06  1.94715E-10
       2.401201  8.62944E-01  1.25576E-01  1.07037E-02  3.27554E-04  4.08394E-06  2.23479E-10
       2.426213  8.62359E-01  1.26055E-01  1.07981E-02  3.33738E-04  4.22366E-06  2.61301E-10
       2.451226  8.61742E-01  1.26557E-01  1.09011E-02  3.41080E-04  4.39256E-06  3.09248E-10
       2.476238  8.61094E-01  1.27081E-01  1.10123E-02  3.49575E-04  4.59174E-06  3.68660E-10
       2.501251  8.60416E-01  1.27625E-01  1.11315E-02  3.59215E-04  4.82243E-06  4.41166E-10
       2.526263  8.59712E-01  1.28186E-01  1.12581E-02  3.69988E-04  5.08590E-06  5.28701E-10
       2.551276  8.58985E-01  1.28764E-01  1.13920E-02  3.81878E-04  5.38353E-06  6.33518E-10
       2.576288  8.58235E-01  1.29355E-01  1.15325E-02  3.94868E-04  5.71670E-06  7.58211E-10
       2.601301  8.57466E-01  1.29957E-01  1.16794E-02  4.08935E-04  6.08685E-06  9.05728E-10
       2.626313  8.56681E-01  1.30570E-01  1.18321E-02  4.24055E-04  6.49540E-06  1.07939E-09
       2.651326  8.55881E-01  1.31190E-01  1.19903E-02  4.40202E-04  6.94377E-06  1.28289E-09
       2.676338  8.55070E-01  1.31815E-01  1.21535E-02  4.57347E-04  7.43333E-06  1.52035E-09
       2.701351  8.54249E-01  1.32445E-01  1.23212E-02  4.75457E-04  7.96539E-06  1.79627E-09
       2.726363  8.53422E-01  1.33076E-01  1.24930E-02  4.94501E-04  8.54121E-06  2.11561E-09
       2.751376  8.52589E-01  1.33708E-01  1.26684E-02  5.14441E-04  9.16192E-06  2.48371E-09
       2.776388  8.51754E-01  1.34338E-01  1.28470E-02  5.35241E-04  9.82856E-06  2.90641E-09
       2.801401  8.50919E-01  1.34965E-01  1.30284E-02  5.56861E-04  1.05420E-05  3.38993E-09
       2.826413  8.50085E-01  1.35587E-01  1.32120E-02  5.79260E-04  1.13031E-05  3.94096E-09
       2.851426  8.49255E-01  1.36203E-01  1.33976E-02  6.02396E-04  1.21122E-05  4.56656E-09
       2.876438  8.48431E-01  1.36811E-01  1.35846E-02  6.26224E-04  1.29699E-05  5.27423E-09
       2.901451  8.47614E-01  1.37410E-01  1.37727E-02  6.50696E-04  1.38763E-05  6.07177E-09
       2.926463  8.46806E-01  1.37998E-01  1.39614E-02  6.75764E-04  1.48313E-05  6.96730E-09
       2.951476  8.46008E-01  1.38575E-01  1.41504E-02  7.01377E-04  1.58345E-05  7.96914E-09
       2.976488  8.45224E-01  1.39139E-01  1.43393E-02  7.27483E-04  1.68854E-05  9.08572E-09
       3.001501  8.44453E-01  1.39689E-01  1.45275E-02  7.54025E-04  1.79829E-05  1.03255E-08
       3.026513  8.43697E-01  1.40224E-01  1.47149E-02  7.80948E-04  1.91259E-05  1.16967E-08
       3.051526  8.42959E-01  1.40743E-01  1.49009E-02  8.08192E-04  2.03128E-05  1.32072E-08
       3.076538  8.42240E-01  1.41245E-01  1.50851E-02  8.35694E-04  2.15415E-05  1.48645E-08
       3.101551  8.41540E-01  1.41729E-01  1.52672E-02  8.63391E-04  2.28097E-05  1.66751E-08
       3.126563  8.40861E-01  1.42193E-01  1.54467E-02  8.91216E-04  2.41147E-05  1.86445E-08
       3.151576  8.40206E-01  1.42639E-01  1.56232E-02  9.19100E-04  2.54534E-05  2.07768E-08
       3.176588  8.39574E-01  1.43063E-01  1.57964E-02  9.46973E-04  2.68222E-05  2.30747E-08
       3.201601  8.38967E-01  1.43466E-01  1.59658E-02  9.74762E-04  2.82172E-05  2.55388E-08
       3.226613  8.38387E-01  1.43847E-01  1.61309E-02  1.00239E-03  2.96343E-05  2.81673E-08
       3.251626  8.37835E-01  1.44205E-01  1.62914E-02  1.02978E-03  3.10689E-05  3.09563E-08
       3.276638  8.37312E-01  1.44539E-01  1.64469E-02  1.05685E-03  3.25161E-05  3.38989E-08
       3.301651  8.36819E-01  1.44849E-01  1.65969E-02  1.08353E-03  3.39707E-05  3.69852E-08
       3.326663  8.36358E-01  1.45133E-01  1.67410E-02  1.10972E-03  3.54272E-05  4.02023E-08
       3.351676  8.35928E-01  1.45393E-01  1.68788E-02  1.13534E-03  3.68802E-05  4.35343E-08
       3.376688  8.35533E-01  1.45626E-01  1.70099E-02  1.16030E-03  3.83236E-05  4.69618E-08
       3.401701  8.35172E-01  1.45833E-01  1.71339E-02  1.18452E-03  3.97516E-05  5.04626E-08
       3.426713  8.34846E-01  1.46012E-01  1.72503E-02  1.20790E-03  4.11581E-05  5.40114E-08
       3.451726  8.34556E-01  1.46164E-01  1.73589E-02  1.23035E-03  4.25367E-05  5.75803E-08
       3.476738  8.34304E-01  1.46288E-01  1.74592E-02  1.25178E-03  4.38814E-05  6.11390E-08
       3.501751  8.34090E-01  1.46384E-01  1.75508E-02  1.27210E-03  4.51856E-05  6.46552E-08
       3.526763  8.33915E-01  1.46451E-01  1.76335E-02  1.29122E-03  4.64430E-05  6.80954E-08
       3.551776  8.33779E-01  1.46489E-01  1.77070E-02  1.30906E-03  4.76473E-05  7.14248E-08
       3.576788  8.33682E-01  1.46499E-01  1.77709E-02  1.32553E-03  4.87921E-05  7.46083E-08
       3.601801  8.33626E-01  1.46480E-01  1.78251E-02  1.34055E-03  4.98710E-05  7.76113E-08
       3.626813  8.33611E-01  1.46432E-01  1.78693E-02  1.35405E-03  5.08778E-05  8.03998E-08
       3.651826  8.33636E-01  1.46355E-01  1.79034E-02  1.36596E-03  5.18063E-05  8.29412E-08
       3.676838  8.33701E-01  1.46249E-01  1.79272E-02  1.37623E-03  5.26507E-05  8.52053E-08
       3.701851  8.33806E-01  1.46116E-01  1.79407E-02  1.38481E-03  5.34053E-05  8.71645E-08
       3.726863  8.33952E-01  1.45955E-01  1.79438E-02  1.39166E-03  5.40647E-05  8.87943E-08
       3.751876  8.34136E-01  1.45767E-01  1.79367E-02  1.39676E-03  5.46240E-05  9.00742E-08
       3.776888  8.34359E-01  1.45553E-01  1.79194E-02  1.40010E-03  5.50788E-05  9.09880E-08
       3.801901  8.34618E-01  1.45313E-01  1.78921E-02  1.40166E-03  5.54254E-05  9.15240E-08
       3.826913  8.34914E-01  1.45050E-01  1.78550E-02  1.40147E-03  5.56607E-05  9.16756E-08
       3.851926  8.35243E-01  1.44764E-01  1.78083E-02  1.39955E-03  5.57825E-05  9.14411E-08
       3.876938  8.35605E-01  1.44456E-01  1.77524E-02  1.39594E-03  5.57895E-05  9.08243E-08
       3.901951  8.35998E-01  1.44129E-01  1.76877E-02  1.39068E-03  5.56814E-05  8.98339E-08
       3.926963  8.36418E-01  1.43783E-01  1.76147E-02  1.38383E-03  5.54588E-05  8.84839E-08
       3.951976  8.36864E-01  1.43421E-01  1.75339E-02  1.37547E-03  5.51236E-05  8.67926E-08
       3.976988  8.37333E-01  1.43046E-01  1.74458E-02  1.36567E-03  5.46785E-05  8.47829E-08
       4.002001  8.37822E-01  1.42658E-01  1.73510E-02  1.35452E-03  5.41277E-05  8.24815E-08
       4.027014  8.38328E-01  1.42261E-01  1.72502E-02  1.34212E-03  5.34759E-05  7.99182E-08
       4.052026  8.38848E-01  1.41857E-01  1.71440E-02  1.32857E-03  5.27292E-05  7.71256E-08
       4.077039  8.39378E-01  1.41448E-01  1.70332E-02  1.31397E-03  5.18944E-05  7.41378E-08
       4.102051  8.39914E-01  1.41037E-01  1.69185E-02  1.29843E-03  5.09791E-05  7.09903E-08
       4.127064  8.40454E-01  1.40628E-01  1.68008E-02  1.28206E-03  4.99915E-05  6.77190E-08
       4.152076  8.40993E-01  1.40222E-01  1.66807E-02  1.26499E-03  4.89406E-05  6.43595E-08
       4.177089  8.41528E-01  1.39822E-01  1.65591E-02  1.24731E-03  4.78354E-05  6.09464E-08
       4.202101  8.42055E-01  1.39432E-01  1.64368E-02  1.22915E-03  4.66854E-05  5.75129E-08
       4.227114  8.42569E-01  1.39055E-01  1.63146E-02  1.21062E-03  4.55002E-05  5.40902E-08
       4.252126  8.43068E-01  1.38692E-01  1.61934E-02  1.19182E-03  4.42893E-05  5.07069E-08
       4.277139  8.43547E-01  1.38348E-01  1.60738E-02  1.17288E-03  4.30620E-05  4.73890E-08
       4.302151  8.44003E-01  1.38025E-01  1.59569E-02  1.15389E-03  4.18275E-05  4.41595E-08
       4.327164  8.44431E-01  1.37725E-01  1.58432E-02  1.13496E-03  4.05945E-05  4.10382E-08
       4.352176  8.44829E-01  1.37452E-01  1.57336E-02  1.11620E-03  3.93711E-05  3.80418E-08
       4.377189  8.45193E-01  1.37208E-01  1.56288E-02  1.09769E-03  3.81652E-05  3.51837E-08
       4.402201  8.45519E-01  1.36995E-01  1.55296E-02  1.07952E-03  3.69838E-05  3.24745E-08
       4.427214  8.45806E-01  1.36815E-01  1.54366E-02  1.06180E-03  3.58335E-05  2.99215E-08
       4.452226  8.46049E-01  1.36672E-01  1.53503E-02  1.04460E-03  3.47200E-05  2.75297E-08
       4.477239  8.46247E-01  1.36565E-01  1.52715E-02  1.02801E-03  3.36485E-05  2.53015E-08
       4.502251  8.46398E-01  1.36498E-01  1.52006E-02  1.01209E-03  3.26234E-05  2.32370E-08
       4.527264  8.46498E-01  1.36471E-01  1.51381E-02  9.96911E-04  3.16487E-05  2.13345E-08
       4.552276  8.46548E-01  1.36485E-01  1.50845E-02  9.82542E-04  3.07273E-05  1.95907E-08
       4.577289  8.46546E-01  1.36541E-01  1.50400E-02  9.69036E-04  2.98619E-05  1.80010E-08
       4.602301  8.46491E-01  1.36639E-01  1.50050E-02  9.56443E-04  2.90545E-05  1.65596E-08
       4.627314  8.46383E-01  1.36780E-01  1.49797E-02  9.44806E-04  2.83063E-05  1.52600E-08
       4.652326  8.46223E-01  1.36963E-01  1.49641E-02  9.34163E-04  2.76183E-05  1.40951E-08
       4.677339  8.46010E-01  1.37187E-01  1.49584E-02  9.24540E-04  2.69908E-05  1.30574E-08
       4.702351  8.45746E-01  1.37452E-01  1.49625E-02  9.15960E-04  2.64238E-05  1.21395E-08
       4.727364  8.45432E-01  1.37755E-01  1.49763E-02  9.08435E-04  2.59169E-05  1.13335E-08
       4.752376  8.45070E-01  1.38095E-01  1.49996E-02  9.01972E-04  2.54692E-05  1.06320E-08
       4.777389  8.44663E-01  1.38471E-01  1.50321E-02  8.96566E-04  2.50795E-05  1.00278E-08
       4.802401  8.44214E-01  1.38879E-01  1.50734E-02  8.92208E-04  2.47463E-05  9.51379E-09
       4.827414  8.43725E-01  1.39317E-01  1.51230E-02  8.88878E-04  2.44679E-05  9.08332E-09
       4.852426  8.43199E-01  1.39782E-01  1.51806E-02  8.86551E-04  2.42422E-05  8.73010E-09
       4.877439  8.42642E-01  1.40272E-01  1.52454E-02  8.85191E-04  2.40669E-05  8.44823E-09
       4.902451  8.42056E-01  1.40782E-01  1.53168E-02  8.84757E-04  2.39396E-05  8.23218E-09
       4.927464  8.41446E-01  1.41309E-01  1.53942E-02  8.85204E-04  2.38576E-05  8.07678E-09
       4.952476  8.40816E-01  1.41851E-01  1.54768E-02  8.86477E-04  2.38182E-05  7.97721E-09
       4.977489  8.40170E-01  1.42403E-01  1.55637E-02  8.88518E-04  2.38183E-05  7.92899E-09
       5.002501  8.39513E-01  1.42961E-01  1.56543E-02  8.91267E-04  2.38550E-05  7.92791E-09
       5.027514  8.38850E-01  1.43524E-01  1.57477E-02  8.94657E-04  2.39252E-05  7.97004E-09
       5.052526  8.38183E-01  1.44086E-01  1.58430E-02  8.98624E-04  2.40258E-05  8.05172E-09
       5.077539  8.37518E-01  1.44645E-01  1.59396E-02  9.03101E-04  2.41538E-05  8.16951E-09
       5.102551  8.36857E-01  1.45199E-01  1.60366E-02  9.08019E-04  2.43062E-05  8.32022E-09
       5.127564  8.36206E-01  1.45743E-01  1.61333E-02  9.13316E-04  2.44800E-05  8.50090E-09
       5.152576  8.35566E-01  1.46276E-01  1.62290E-02  9.18928E-04  2.46726E-05  8.70884E-09
       5.177589  8.34942E-01  1.46796E-01  1.63230E-02  9.24797E-04  2.48813E-05  8.94161E-09
       5.202601  8.34335E-01  1.47300E-01  1.64149E-02  9.30868E-04  2.51037E-05  9.19704E-09
       5.227614  8.33748E-01  1.47787E-01  1.65039E-02  9.37091E-04  2.53379E-05  9.47329E-09
