# population in each right-qubit level over  time for $\ket{\Psi(t=0)} = \ket{10}$ (integrated over all cavity levels)
#        t [ns]            0            1            2            3            4
       0.000000  9.58458E-01  4.15425E-02  1.87400E-29  4.70844E-31  3.51538E-33
       0.025013  9.58455E-01  4.15424E-02  3.69257E-17  4.76155E-31  7.51505E-34
       0.050025  9.58453E-01  4.15423E-02  5.12053E-15  2.36171E-28  2.33827E-34
       0.075038  9.58451E-01  4.15422E-02  1.11988E-13  1.13082E-25  1.74039E-34
       0.100050  9.58449E-01  4.15421E-02  1.03462E-12  9.64650E-24  1.64759E-34
       0.125063  9.58447E-01  4.15421E-02  5.84151E-12  3.07242E-22  4.78233E-33
       0.150075  9.58445E-01  4.15420E-02  2.40102E-11  5.18503E-21  3.39428E-31
       0.175088  9.58442E-01  4.15419E-02  7.90865E-11  5.61829E-20  1.12431E-29
       0.200100  9.58440E-01  4.15418E-02  2.21276E-10  4.39157E-19  2.25347E-28
       0.225113  9.58438E-01  4.15418E-02  5.46212E-10  2.67137E-18  3.10156E-27
       0.250125  9.58436E-01  4.15417E-02  1.22095E-09  1.33222E-17  3.17576E-26
       0.275138  9.58434E-01  4.15416E-02  2.51795E-09  5.65395E-17  2.55909E-25
       0.300150  9.58432E-01  4.15416E-02  4.85750E-09  2.09927E-16  1.69154E-24
       0.325163  9.58429E-01  4.15416E-02  8.85858E-09  6.96400E-16  9.46437E-24
       0.350175  9.58427E-01  4.15415E-02  1.53978E-08  2.09815E-15  4.59338E-23
       0.375188  9.58425E-01  4.15416E-02  2.56754E-08  5.81626E-15  1.97160E-22
       0.400200  9.58423E-01  4.15417E-02  4.12877E-08  1.49911E-14  7.60204E-22
       0.425213  9.58420E-01  4.15418E-02  6.43030E-08  3.62354E-14  2.66692E-21
       0.450225  9.58418E-01  4.15421E-02  9.73404E-08  8.27226E-14  8.60292E-21
       0.475238  9.58415E-01  4.15425E-02  1.43648E-07  1.79428E-13  2.57437E-20
       0.500250  9.58412E-01  4.15431E-02  2.07179E-07  3.71634E-13  7.19986E-20
       0.525263  9.58409E-01  4.15440E-02  2.92659E-07  7.38175E-13  1.89393E-19
       0.550275  9.58405E-01  4.15451E-02  4.05650E-07  1.41131E-12  4.71150E-19
       0.575288  9.58401E-01  4.15467E-02  5.52595E-07  2.60544E-12  1.11366E-18
       0.600300  9.58397E-01  4.15486E-02  7.40855E-07  4.65738E-12  2.51140E-18
       0.625313  9.58392E-01  4.15512E-02  9.78718E-07  8.08077E-12  5.42260E-18
       0.650325  9.58386E-01  4.15544E-02  1.27540E-06  1.36376E-11  1.12457E-17
       0.675338  9.58380E-01  4.15584E-02  1.64100E-06  2.24289E-11  2.24623E-17
       0.700350  9.58372E-01  4.15633E-02  2.08646E-06  3.60070E-11  4.33186E-17
       0.725363  9.58363E-01  4.15694E-02  2.62346E-06  5.65085E-11  8.08336E-17
       0.750375  9.58353E-01  4.15767E-02  3.26431E-06  8.68082E-11  1.46234E-16
       0.775388  9.58341E-01  4.15854E-02  4.02183E-06  1.30689E-10  2.56919E-16
       0.800400  9.58328E-01  4.15957E-02  4.90910E-06  1.93021E-10  4.39047E-16
       0.825413  9.58312E-01  4.16079E-02  5.93936E-06  2.79942E-10  7.30804E-16
       0.850425  9.58295E-01  4.16222E-02  7.12570E-06  3.99028E-10  1.18636E-15
       0.875438  9.58274E-01  4.16387E-02  8.48081E-06  5.59425E-10  1.88039E-15
       0.900450  9.58251E-01  4.16578E-02  1.00168E-05  7.71944E-10  2.91305E-15
       0.925463  9.58226E-01  4.16796E-02  1.17447E-05  1.04908E-09  4.41496E-15
       0.950475  9.58197E-01  4.17044E-02  1.36744E-05  1.40495E-09  6.55171E-15
       0.975488  9.58164E-01  4.17324E-02  1.58143E-05  1.85509E-09  9.52739E-15
       1.000500  9.58128E-01  4.17639E-02  1.81709E-05  2.41617E-09  1.35862E-14
       1.025513  9.58088E-01  4.17992E-02  2.07487E-05  3.10552E-09  1.90112E-14
       1.050525  9.58043E-01  4.18383E-02  2.35495E-05  3.94052E-09  2.61204E-14
       1.075538  9.57995E-01  4.18817E-02  2.65729E-05  4.93790E-09  3.52572E-14
       1.100550  9.57941E-01  4.19294E-02  2.98154E-05  6.11280E-09  4.67779E-14
       1.125563  9.57883E-01  4.19818E-02  3.32707E-05  7.47781E-09  6.10338E-14
       1.150575  9.57820E-01  4.20388E-02  3.69291E-05  9.04193E-09  7.83484E-14
       1.175588  9.57752E-01  4.21008E-02  4.07780E-05  1.08095E-08  9.89924E-14
       1.200600  9.57679E-01  4.21679E-02  4.48014E-05  1.27791E-08  1.23156E-13
       1.225613  9.57600E-01  4.22401E-02  4.89801E-05  1.49429E-08  1.50920E-13
       1.250625  9.57516E-01  4.23176E-02  5.32919E-05  1.72854E-08  1.82232E-13
       1.275638  9.57426E-01  4.24004E-02  5.77114E-05  1.97835E-08  2.16886E-13
       1.300650  9.57331E-01  4.24886E-02  6.22106E-05  2.24058E-08  2.54503E-13
       1.325663  9.57230E-01  4.25821E-02  6.67588E-05  2.51133E-08  2.94536E-13
       1.350675  9.57125E-01  4.26809E-02  7.13230E-05  2.78595E-08  3.36266E-13
       1.375688  9.57014E-01  4.27850E-02  7.58683E-05  3.05914E-08  3.78829E-13
       1.400700  9.56897E-01  4.28943E-02  8.03582E-05  3.32511E-08  4.21239E-13
       1.425713  9.56776E-01  4.30086E-02  8.47551E-05  3.57775E-08  4.62437E-13
       1.450725  9.56651E-01  4.31277E-02  8.90203E-05  3.81081E-08  5.01334E-13
       1.475738  9.56520E-01  4.32516E-02  9.31153E-05  4.01818E-08  5.36869E-13
       1.500750  9.56386E-01  4.33799E-02  9.70013E-05  4.19407E-08  5.68070E-13
       1.525763  9.56247E-01  4.35124E-02  1.00640E-04  4.33331E-08  5.94107E-13
       1.550775  9.56105E-01  4.36488E-02  1.03996E-04  4.43158E-08  6.14341E-13
       1.575788  9.55959E-01  4.37889E-02  1.07033E-04  4.48560E-08  6.28367E-13
       1.600800  9.55811E-01  4.39322E-02  1.09717E-04  4.49335E-08  6.36037E-13
       1.625813  9.55660E-01  4.40784E-02  1.12019E-04  4.45419E-08  6.37467E-13
       1.650825  9.55507E-01  4.42271E-02  1.13910E-04  4.36895E-08  6.33035E-13
       1.675838  9.55352E-01  4.43779E-02  1.15367E-04  4.23994E-08  6.23353E-13
       1.700850  9.55197E-01  4.45304E-02  1.16369E-04  4.07093E-08  6.09227E-13
       1.725863  9.55040E-01  4.46842E-02  1.16898E-04  3.86703E-08  5.91604E-13
       1.750875  9.54883E-01  4.48387E-02  1.16944E-04  3.63453E-08  5.71513E-13
       1.775888  9.54726E-01  4.49936E-02  1.16497E-04  3.38065E-08  5.49998E-13
       1.800900  9.54570E-01  4.51483E-02  1.15556E-04  3.11331E-08  5.28052E-13
       1.825913  9.54415E-01  4.53023E-02  1.14122E-04  2.84075E-08  5.06562E-13
       1.850925  9.54262E-01  4.54552E-02  1.12201E-04  2.57129E-08  4.86259E-13
       1.875938  9.54110E-01  4.56066E-02  1.09806E-04  2.31289E-08  4.67682E-13
       1.900950  9.53962E-01  4.57558E-02  1.06954E-04  2.07292E-08  4.51162E-13
       1.925963  9.53816E-01  4.59024E-02  1.03666E-04  1.85777E-08  4.36816E-13
       1.950975  9.53674E-01  4.60460E-02  9.99677E-05  1.67265E-08  4.24562E-13
       1.975988  9.53535E-01  4.61861E-02  9.58914E-05  1.52134E-08  4.14149E-13
       2.001001  9.53401E-01  4.63223E-02  9.14719E-05  1.40605E-08  4.05193E-13
       2.026013  9.53272E-01  4.64540E-02  8.67485E-05  1.32737E-08  3.97228E-13
       2.051026  9.53148E-01  4.65810E-02  8.17643E-05  1.28421E-08  3.89750E-13
       2.076038  9.53029E-01  4.67028E-02  7.65656E-05  1.27395E-08  3.82271E-13
       2.101051  9.52915E-01  4.68190E-02  7.12019E-05  1.29249E-08  3.74357E-13
       2.126063  9.52808E-01  4.69293E-02  6.57249E-05  1.33455E-08  3.65667E-13
       2.151076  9.52707E-01  4.70334E-02  6.01884E-05  1.39386E-08  3.55972E-13
       2.176088  9.52613E-01  4.71310E-02  5.46475E-05  1.46353E-08  3.45162E-13
       2.201101  9.52525E-01  4.72217E-02  4.91584E-05  1.53635E-08  3.33246E-13
       2.226113  9.52445E-01  4.73055E-02  4.37775E-05  1.60516E-08  3.20332E-13
       2.251126  9.52371E-01  4.73821E-02  3.85611E-05  1.66319E-08  3.06607E-13
       2.276138  9.52305E-01  4.74512E-02  3.35645E-05  1.70439E-08  2.92300E-13
       2.301151  9.52245E-01  4.75129E-02  2.88421E-05  1.72373E-08  2.77651E-13
       2.326163  9.52193E-01  4.75670E-02  2.44464E-05  1.71743E-08  2.62879E-13
       2.351176  9.52149E-01  4.76134E-02  2.04274E-05  1.68319E-08  2.48151E-13
       2.376188  9.52111E-01  4.76522E-02  1.68327E-05  1.62023E-08  2.33566E-13
       2.401201  9.52081E-01  4.76833E-02  1.37065E-05  1.52944E-08  2.19139E-13
       2.426213  9.52058E-01  4.77069E-02  1.10895E-05  1.41328E-08  2.04812E-13
       2.451226  9.52041E-01  4.77229E-02  9.01836E-06  1.27574E-08  1.90461E-13
       2.476238  9.52032E-01  4.77316E-02  7.52565E-06  1.12218E-08  1.75928E-13
       2.501251  9.52029E-01  4.77330E-02  6.63931E-06  9.59130E-09  1.61053E-13
       2.526263  9.52032E-01  4.77275E-02  6.38255E-06  7.94044E-09  1.45721E-13
       2.551276  9.52042E-01  4.77152E-02  6.77369E-06  6.35027E-09  1.29904E-13
       2.576288  9.52057E-01  4.76963E-02  7.82599E-06  4.90546E-09  1.13713E-13
       2.601301  9.52078E-01  4.76713E-02  9.54764E-06  3.69130E-09  9.74365E-14
       2.626313  9.52105E-01  4.76403E-02  1.19417E-05  2.79091E-09  8.15788E-14
       2.651326  9.52136E-01  4.76038E-02  1.50062E-05  2.28254E-09  6.68861E-14
       2.676338  9.52171E-01  4.75621E-02  1.87340E-05  2.23726E-09  5.43605E-14
       2.701351  9.52211E-01  4.75156E-02  2.31134E-05  2.71705E-09  4.52624E-14
       2.726363  9.52254E-01  4.74648E-02  2.81277E-05  3.77337E-09  4.10980E-14
       2.751376  9.52301E-01  4.74100E-02  3.37561E-05  5.44618E-09  4.35966E-14
       2.776388  9.52351E-01  4.73518E-02  3.99731E-05  7.76363E-09  5.46756E-14
       2.801401  9.52403E-01  4.72907E-02  4.67498E-05  1.07421E-08  7.63980E-14
       2.826413  9.52457E-01  4.72271E-02  5.40532E-05  1.43868E-08  1.10924E-13
       2.851426  9.52512E-01  4.71615E-02  6.18475E-05  1.86929E-08  1.60459E-13
       2.876438  9.52568E-01  4.70944E-02  7.00938E-05  2.36469E-08  2.27206E-13
       2.901451  9.52625E-01  4.70265E-02  7.87505E-05  2.92282E-08  3.13314E-13
       2.926463  9.52682E-01  4.69582E-02  8.77741E-05  3.54111E-08  4.20843E-13
       2.951476  9.52738E-01  4.68901E-02  9.71193E-05  4.21668E-08  5.51725E-13
       2.976488  9.52794E-01  4.68228E-02  1.06740E-04  4.94651E-08  7.07741E-13
       3.001501  9.52848E-01  4.67567E-02  1.16587E-04  5.72762E-08  8.90509E-13
       3.026513  9.52899E-01  4.66925E-02  1.26614E-04  6.55729E-08  1.10148E-12
       3.051526  9.52948E-01  4.66307E-02  1.36771E-04  7.43310E-08  1.34193E-12
       3.076538  9.52995E-01  4.65719E-02  1.47011E-04  8.35312E-08  1.61299E-12
       3.101551  9.53037E-01  4.65167E-02  1.57286E-04  9.31590E-08  1.91564E-12
       3.126563  9.53075E-01  4.64656E-02  1.67548E-04  1.03205E-07  2.25074E-12
       3.151576  9.53109E-01  4.64190E-02  1.77752E-04  1.13666E-07  2.61905E-12
       3.176588  9.53138E-01  4.63777E-02  1.87852E-04  1.24542E-07  3.02122E-12
       3.201601  9.53161E-01  4.63421E-02  1.97806E-04  1.35837E-07  3.45784E-12
       3.226613  9.53178E-01  4.63126E-02  2.07571E-04  1.47555E-07  3.92937E-12
       3.251626  9.53189E-01  4.62899E-02  2.17108E-04  1.59704E-07  4.43620E-12
       3.276638  9.53193E-01  4.62744E-02  2.26378E-04  1.72287E-07  4.97858E-12
       3.301651  9.53189E-01  4.62665E-02  2.35347E-04  1.85304E-07  5.55656E-12
       3.326663  9.53178E-01  4.62668E-02  2.43979E-04  1.98749E-07  6.17001E-12
       3.351676  9.53158E-01  4.62755E-02  2.52244E-04  2.12606E-07  6.81845E-12
       3.376688  9.53130E-01  4.62932E-02  2.60110E-04  2.26852E-07  7.50103E-12
       3.401701  9.53093E-01  4.63202E-02  2.67552E-04  2.41446E-07  8.21645E-12
       3.426713  9.53047E-01  4.63569E-02  2.74544E-04  2.56336E-07  8.96279E-12
       3.451726  9.52991E-01  4.64036E-02  2.81062E-04  2.71454E-07  9.73748E-12
       3.476738  9.52926E-01  4.64605E-02  2.87085E-04  2.86713E-07  1.05371E-11
       3.501751  9.52850E-01  4.65280E-02  2.92595E-04  3.02008E-07  1.13575E-11
       3.526763  9.52765E-01  4.66062E-02  2.97574E-04  3.17218E-07  1.21934E-11
       3.551776  9.52668E-01  4.66954E-02  3.02007E-04  3.32203E-07  1.30385E-11
       3.576788  9.52562E-01  4.67958E-02  3.05881E-04  3.46807E-07  1.38856E-11
       3.601801  9.52444E-01  4.69074E-02  3.09186E-04  3.60862E-07  1.47264E-11
       3.626813  9.52316E-01  4.70303E-02  3.11911E-04  3.74183E-07  1.55516E-11
       3.651826  9.52177E-01  4.71647E-02  3.14050E-04  3.86580E-07  1.63510E-11
       3.676838  9.52027E-01  4.73105E-02  3.15598E-04  3.97857E-07  1.71135E-11
       3.701851  9.51866E-01  4.74676E-02  3.16550E-04  4.07814E-07  1.78276E-11
       3.726863  9.51695E-01  4.76361E-02  3.16908E-04  4.16258E-07  1.84815E-11
       3.751876  9.51513E-01  4.78159E-02  3.16670E-04  4.23003E-07  1.90632E-11
       3.776888  9.51320E-01  4.80067E-02  3.15840E-04  4.27875E-07  1.95613E-11
       3.801901  9.51118E-01  4.82084E-02  3.14423E-04  4.30722E-07  1.99646E-11
       3.826913  9.50905E-01  4.84207E-02  3.12426E-04  4.31415E-07  2.02633E-11
       3.851926  9.50682E-01  4.86435E-02  3.09858E-04  4.29852E-07  2.04489E-11
       3.876938  9.50450E-01  4.88764E-02  3.06732E-04  4.25968E-07  2.05148E-11
       3.901951  9.50208E-01  4.91190E-02  3.03062E-04  4.19735E-07  2.04562E-11
       3.926963  9.49958E-01  4.93709E-02  2.98863E-04  4.11166E-07  2.02711E-11
       3.951976  9.49699E-01  4.96318E-02  2.94154E-04  4.00316E-07  1.99600E-11
       3.976988  9.49433E-01  4.99011E-02  2.88957E-04  3.87287E-07  1.95262E-11
       4.002001  9.49158E-01  5.01784E-02  2.83295E-04  3.72224E-07  1.89759E-11
       4.027014  9.48877E-01  5.04631E-02  2.77193E-04  3.55314E-07  1.83181E-11
       4.052026  9.48590E-01  5.07546E-02  2.70681E-04  3.36786E-07  1.75646E-11
       4.077039  9.48296E-01  5.10523E-02  2.63788E-04  3.16907E-07  1.67294E-11
       4.102051  9.47998E-01  5.13557E-02  2.56548E-04  2.95972E-07  1.58287E-11
       4.127064  9.47695E-01  5.16639E-02  2.48996E-04  2.74303E-07  1.48803E-11
       4.152076  9.47388E-01  5.19764E-02  2.41169E-04  2.52237E-07  1.39031E-11
       4.177089  9.47077E-01  5.22923E-02  2.33105E-04  2.30123E-07  1.29163E-11
       4.202101  9.46764E-01  5.26110E-02  2.24846E-04  2.08305E-07  1.19392E-11
       4.227114  9.46450E-01  5.29316E-02  2.16435E-04  1.87122E-07  1.09900E-11
       4.252126  9.46134E-01  5.32534E-02  2.07915E-04  1.66892E-07  1.00857E-11
       4.277139  9.45818E-01  5.35756E-02  1.99332E-04  1.47904E-07  9.24103E-12
       4.302151  9.45502E-01  5.38973E-02  1.90732E-04  1.30411E-07  8.46846E-12
       4.327164  9.45188E-01  5.42177E-02  1.82164E-04  1.14625E-07  7.77738E-12
       4.352176  9.44876E-01  5.45359E-02  1.73673E-04  1.00704E-07  7.17400E-12
       4.377189  9.44566E-01  5.48511E-02  1.65309E-04  8.87543E-08  6.66116E-12
       4.402201  9.44261E-01  5.51624E-02  1.57120E-04  7.88246E-08  6.23833E-12
       4.427214  9.43960E-01  5.54691E-02  1.49152E-04  7.09052E-08  5.90174E-12
       4.452226  9.43664E-01  5.57702E-02  1.41453E-04  6.49297E-08  5.64464E-12
       4.477239  9.43374E-01  5.60649E-02  1.34069E-04  6.07785E-08  5.45773E-12
       4.502251  9.43091E-01  5.63524E-02  1.27044E-04  5.82834E-08  5.32964E-12
       4.527264  9.42816E-01  5.66318E-02  1.20421E-04  5.72351E-08  5.24753E-12
       4.552276  9.42549E-01  5.69025E-02  1.14241E-04  5.73916E-08  5.19772E-12
       4.577289  9.42291E-01  5.71635E-02  1.08542E-04  5.84876E-08  5.16633E-12
       4.602301  9.42043E-01  5.74143E-02  1.03359E-04  6.02460E-08  5.13994E-12
       4.627314  9.41806E-01  5.76540E-02  9.87263E-05  6.23880E-08  5.10621E-12
       4.652326  9.41579E-01  5.78820E-02  9.46725E-05  6.46452E-08  5.05435E-12
       4.677339  9.41365E-01  5.80976E-02  9.12239E-05  6.67694E-08  4.97559E-12
       4.702351  9.41163E-01  5.83003E-02  8.84025E-05  6.85430E-08  4.86349E-12
       4.727364  9.40973E-01  5.84895E-02  8.62265E-05  6.97868E-08  4.71414E-12
       4.752376  9.40797E-01  5.86647E-02  8.47099E-05  7.03673E-08  4.52624E-12
       4.777389  9.40635E-01  5.88253E-02  8.38623E-05  7.02011E-08  4.30099E-12
       4.802401  9.40487E-01  5.89710E-02  8.36888E-05  6.92577E-08  4.04200E-12
       4.827414  9.40354E-01  5.91014E-02  8.41899E-05  6.75591E-08  3.75492E-12
       4.852426  9.40235E-01  5.92161E-02  8.53613E-05  6.51786E-08  3.44717E-12
       4.877439  9.40132E-01  5.93149E-02  8.71942E-05  6.22356E-08  3.12742E-12
       4.902451  9.40045E-01  5.93976E-02  8.96749E-05  5.88897E-08  2.80520E-12
       4.927464  9.39973E-01  5.94639E-02  9.27850E-05  5.53324E-08  2.49039E-12
       4.952476  9.39917E-01  5.95138E-02  9.65018E-05  5.17774E-08  2.19271E-12
       4.977489  9.39877E-01  5.95471E-02  1.00798E-04  4.84502E-08  1.92132E-12
       5.002501  9.39853E-01  5.95638E-02  1.05641E-04  4.55770E-08  1.68436E-12
       5.027514  9.39845E-01  5.95639E-02  1.10996E-04  4.33738E-08  1.48863E-12
       5.052526  9.39854E-01  5.95475E-02  1.16823E-04  4.20358E-08  1.33933E-12
       5.077539  9.39878E-01  5.95147E-02  1.23079E-04  4.17280E-08  1.23984E-12
       5.102551  9.39918E-01  5.94656E-02  1.29716E-04  4.25775E-08  1.19164E-12
       5.127564  9.39974E-01  5.94005E-02  1.36686E-04  4.46666E-08  1.19431E-12
       5.152576  9.40045E-01  5.93195E-02  1.43935E-04  4.80293E-08  1.24560E-12
       5.177589  9.40132E-01  5.92229E-02  1.51410E-04  5.26493E-08  1.34161E-12
       5.202601  9.40233E-01  5.91110E-02  1.59053E-04  5.84602E-08  1.47703E-12
       5.227614  9.40350E-01  5.89842E-02  1.66808E-04  6.53487E-08  1.64544E-12
       5.252626  9.40481E-01  5.88429E-02  1.74615E-04  7.31597E-08  1.83968E-12
       5.277639  9.40626E-01  5.86874E-02  1.82416E-04  8.17027E-08  2.05222E-12
       5.302651  9.40786E-01  5.85182E-02  1.90151E-04  9.07608E-08  2.27559E-12
       5.327664  9.40958E-01  5.83357E-02  1.97762E-04  1.00100E-07  2.50275E-12
       5.352676  9.41143E-01  5.81405E-02  2.05191E-04  1.09482E-07  2.72744E-12
       5.377689  9.41341E-01  5.79330E-02  2.12383E-04  1.18669E-07  2.94457E-12
       5.402701  9.41551E-01  5.77139E-02  2.19284E-04  1.27441E-07  3.15044E-12
       5.427714  9.41772E-01  5.74837E-02  2.25843E-04  1.35604E-07  3.34298E-12
       5.452726  9.42004E-01  5.72429E-02  2.32010E-04  1.42993E-07  3.52186E-12
       5.477739  9.42247E-01  5.69923E-02  2.37741E-04  1.49486E-07  3.68857E-12
       5.502751  9.42499E-01  5.67324E-02  2.42994E-04  1.55008E-07  3.84636E-12
       5.527764  9.42760E-01  5.64638E-02  2.47732E-04  1.59529E-07  4.00018E-12
       5.552776  9.43030E-01  5.61874E-02  2.51921E-04  1.63070E-07  4.15647E-12
       5.577789  9.43308E-01  5.59037E-02  2.55533E-04  1.65700E-07  4.32296E-12
       5.602801  9.43592E-01  5.56134E-02  2.58544E-04  1.67533E-07  4.50836E-12
       5.627814  9.43884E-01  5.53174E-02  2.60935E-04  1.68720E-07  4.72205E-12
       5.652826  9.44181E-01  5.50162E-02  2.62693E-04  1.69445E-07  4.97372E-12
       5.677839  9.44483E-01  5.47106E-02  2.63808E-04  1.69914E-07  5.27301E-12
       5.702851  9.44789E-01  5.44013E-02  2.64277E-04  1.70346E-07  5.62909E-12
       5.727864  9.45099E-01  5.40891E-02  2.64100E-04  1.70962E-07  6.05034E-12
       5.752876  9.45411E-01  5.37747E-02  2.63285E-04  1.71977E-07  6.54396E-12
       5.777889  9.45726E-01  5.34588E-02  2.61843E-04  1.73588E-07  7.11564E-12
       5.802901  9.46042E-01  5.31422E-02  2.59788E-04  1.75962E-07  7.76920E-12
       5.827914  9.46359E-01  5.28255E-02  2.57141E-04  1.79235E-07  8.50641E-12
       5.852926  9.46676E-01  5.25095E-02  2.53925E-04  1.83498E-07  9.32669E-12
       5.877939  9.46992E-01  5.21948E-02  2.50169E-04  1.88796E-07  1.02270E-11
       5.902951  9.47306E-01  5.18820E-02  2.45904E-04  1.95126E-07  1.12017E-11
       5.927964  9.47619E-01  5.15719E-02  2.41162E-04  2.02433E-07  1.22425E-11
       5.952976  9.47928E-01  5.12649E-02  2.35982E-04  2.10612E-07  1.33387E-11
       5.977989  9.48235E-01  5.09618E-02  2.30403E-04  2.19513E-07  1.44772E-11
       6.003002  9.48537E-01  5.06630E-02  2.24464E-04  2.28945E-07  1.56427E-11
       6.028014  9.48834E-01  5.03690E-02  2.18209E-04  2.38684E-07  1.68181E-11
       6.053027  9.49127E-01  5.00803E-02  2.11680E-04  2.48478E-07  1.79850E-11
       6.078039  9.49414E-01  4.97974E-02  2.04923E-04  2.58059E-07  1.91239E-11
