#        t [ns]             Re[<00|Psi>]             Im[<00|Psi>]             Re[<01|Psi>]             Im[<01|Psi>]             Re[<10|Psi>]             Im[<10|Psi>]             Re[<11|Psi>]             Im[<11|Psi>]
       0.000000   0.0000000000000000E+00   0.0000000000000000E+00   2.5163331506687795E-16   0.0000000000000000E+00   9.5387777394609158E-17   0.0000000000000000E+00   1.0000000000000007E+00   0.0000000000000000E+00
       0.025013   8.4763207484307901E-13   2.8676521793029023E-13   9.0100561228422207E-07  -8.6545385174975312E-07   4.0301049636790924E-07  -3.9324787804382886E-07  -2.8965337800276719E-01  -9.5712924172879388E-01
       0.050025   8.2364813898020069E-11   2.3217242863805000E-11  -1.8467261718846821E-06  -1.2076846137375136E-05  -8.8388305153283449E-07  -5.4352247520399741E-06  -8.3219730527555702E-01   5.5447143561166268E-01
       0.075038   9.8131847350818991E-10   2.2867499286992174E-10  -3.7459693341988920E-05  -1.8818852839786075E-05  -1.6993651492547998E-05  -8.2641375911832665E-06   7.7174957783700970E-01   6.3591584565614223E-01
       0.100050   5.4874205414367598E-09   1.0182943696040531E-09  -8.7158034718537786E-05   4.6223203763671830E-05  -3.8939599062586505E-05   2.1491205070609146E-05   3.8511376300334849E-01  -9.2285921674428451E-01
       0.125063   2.0508906437438984E-08   2.8425583182556669E-09  -2.4618012235360359E-05   1.8840808026031875E-04  -9.3477597785631389E-06   8.5163553524626075E-05  -9.9484488912309621E-01  -1.0129434875453214E-01
       0.150075   5.9542974607371464E-08   5.4636001230529654E-09   2.3683735963597199E-04   2.1943994859322706E-04   1.0921452632111762E-04   9.6308603220316945E-05   1.9120829098837264E-01   9.8153499745614359E-01
       0.175088   1.4526441200738301E-07   6.5086468549132126E-09   4.9277020321170648E-04  -1.0316178160391405E-04   2.2086864433142867E-04  -5.2889458706082315E-05   8.8407098588315458E-01  -4.6731548964128933E-01
       0.200100   3.1193924621415734E-07  -7.6588248881639964E-10   2.9426301979436939E-04  -6.7603779394375633E-04   1.2271630184738496E-04  -3.0924865766606611E-04  -7.0335413550943704E-01  -7.1080961034013623E-01
       0.225113   6.0737925735510070E-07  -3.0495195947249818E-08  -5.3235535097695722E-04  -8.8097866126435234E-04  -2.5483215543982293E-04  -3.8853404555205188E-04  -4.7660667181225325E-01   8.7908637997237227E-01
       0.250125   1.0941777492727261E-06  -1.0792716101674423E-07  -1.3801418863767032E-03  -1.0084170563111720E-04  -6.2460332509032233E-04  -1.9864980841181602E-05   9.7944498903151878E-01   2.0154355892920359E-01
       0.275138   1.8500063895242749E-06  -2.7368621774285621E-07  -1.1475595086701902E-03   1.3925332253210485E-03  -4.8938241661406314E-04   6.5201502743949570E-04  -9.0794332635600702E-02  -9.9582558618876971E-01
       0.300150   2.9668056160568141E-06  -5.8836119767319257E-07   6.0174902880882008E-04   2.2140009738705752E-03   3.2135936882093913E-04   9.8604169551482087E-04  -9.2682495407865473E-01   3.7533984129937636E-01
       0.325163   4.5487647083935220E-06  -1.1371503947548505E-06   2.6821756318091200E-03   9.8105568147525165E-04   1.2352648185283014E-03   3.7759347174962088E-04   6.2769368358611444E-01   7.7836196867657881E-01
       0.350175   6.7090590514408422E-06  -2.0342659350332100E-06   2.8732448984280664E-03  -1.9834851028449939E-03   1.2457319682249418E-03  -9.7194610443542071E-04   5.6317059375979883E-01  -8.2621725256789891E-01
       0.375188   9.5653877196379987E-06  -3.4267862563564044E-06   4.9016612652119045E-05  -4.2017576889181712E-03  -9.7185793740181125E-05  -1.9004383636896359E-03  -9.5388908449360543E-01  -2.9970816091221697E-01
       0.400200   1.3234430221144487E-05  -5.4976511471018318E-06  -4.0385089593310509E-03  -2.9291202644501912E-03  -1.9151877749999625E-03  -1.2015336684095116E-03  -1.0572312308812639E-02   9.9976563547019848E-01
       0.425213   1.7825412836656648E-05  -8.4675181472633651E-06  -5.5415086073403444E-03   1.8823576677899979E-03  -2.4456620814902875E-03   1.0315201047631161E-03   9.5992081067773549E-01  -2.7943779917881112E-01
       0.450225   2.3433038314757760E-05  -1.2595241027869252E-05  -1.9321152987037272E-03   6.5121786864671917E-03  -6.4942351155080182E-04   3.0141204785874604E-03  -5.4544980112537145E-01  -8.3778330046226834E-01
       0.475238   3.0130083936461637E-05  -1.8176788407282568E-05   4.8275780551014121E-03   6.1383527399682791E-03   2.4110453110600745E-03   2.6026609732275872E-03  -6.4384240808806825E-01   7.6465318899524015E-01
       0.500250   3.7960008922236501E-05  -2.5542490334760249E-05   8.8898757633095824E-03  -4.4823690968006069E-04   4.0103867293119107E-03  -5.4778948184978763E-04   9.1825773428821422E-01   3.9474729520214125E-01
       0.525263   4.6929930431975515E-05  -3.5052579159115633E-05   5.3970280224504234E-03  -8.4981422142276324E-03   2.0988820187664787E-03  -4.0733359918892461E-03   1.1187677154738167E-01  -9.9310673452508857E-01
       0.550275   5.7004326604569485E-05  -4.7091073986532409E-05  -4.2835483949537692E-03  -1.0462365105876663E-02  -2.3939022851604064E-03  -4.5611274254708564E-03  -9.8280616003809940E-01   1.8049758437678856E-01
       0.575288   6.8099804908284365E-05  -6.2058141040342933E-05  -1.2287254789668346E-02  -2.8508607564701233E-03  -5.7060445714745773E-03  -7.3736273323540998E-04   4.5729702677742246E-01   8.8827232392430489E-01
       0.600300   8.0081235378163108E-05  -8.0361140789606222E-05  -1.0462117405843728E-02   9.2871917774934535E-03  -4.3101020320025513E-03   4.7151374924149598E-03   7.1765075682795387E-01  -6.9479043216145375E-01
       0.625313   9.2759493053837176E-05  -1.0240464258773053E-04   1.6763936655240785E-03   1.5338774350060317E-02   1.5255503128624936E-03   6.8873043442876222E-03  -8.7263264169597754E-01  -4.8561319889016624E-01
       0.650325   1.0589098503398574E-04  -1.2857974501590826E-04   1.4789093894868266E-02   8.2446650721402902E-03   7.1547626381723312E-03   2.9790081308695808E-03  -2.1209333299335983E-01   9.7561068037917376E-01
       0.675338   1.1917905876357505E-04  -1.5925308209496273E-04   1.6694946839414082E-02  -7.9507179032167648E-03   7.1644534823090090E-03  -4.5263783546742606E-03   9.9494737339631545E-01  -7.9429595522062510E-02
       0.700350   1.3227730376202235E-04  -1.9475591977711850E-04   3.4743355136283350E-03  -1.9802165549502919E-02   4.5777515853414518E-04  -9.2142624992130676E-03  -3.6395103526253497E-01  -9.2905015209701247E-01
       0.725363   1.4479467357556358E-04  -2.3537375234855321E-04  -1.5286346044448821E-02  -1.5496307665431773E-02  -7.8823978845918696E-03  -6.1564026149887249E-03  -7.8364087286108031E-01   6.1709078710114873E-01
       0.750375   1.5630227290236733E-04  -2.8133679423873178E-04  -2.3175908745480568E-02   3.7312237408070928E-03  -1.0337407263500230E-02   3.1294350749739627E-03   8.1718651488605087E-01   5.7125607622992070E-01
       0.775388   1.6634158094115038E-04  -3.3281172990715080E-04  -1.1191645898758337E-02   2.2602388559015581E-02  -3.6573455940301053E-03   1.1030121417114477E-02   3.1016160539943266E-01  -9.4715061968087866E-01
       0.800400   1.7443381988598876E-04  -3.8989503458354969E-04   1.2736822708213890E-02   2.3810803412346388E-02   7.4018962637489322E-03   1.0022331468743137E-02  -9.9593073634002949E-01  -2.2776113287438615E-02
       0.825413   1.8009013023817129E-04  -4.5260811417875376E-04   2.8574975837112666E-02   3.7103318440650061E-03   1.3311478258480374E-02  -2.8285225640567924E-04   2.6625971009162425E-01   9.5944871042911140E-01
       0.850425   1.8282218444191781E-04  -5.2089443693500732E-04   2.0890787399171072E-02  -2.2428406021674344E-02   7.9386405374493804E-03  -1.1754005446739591E-02   8.4093830623758203E-01  -5.3220104902250287E-01
       0.875438   1.8215285848349373E-04  -5.9461874624767584E-04  -6.4447779490931474E-03  -3.1859803931900167E-02  -5.3225843645819905E-03  -1.4093144262834648E-02  -7.5232117114545782E-01  -6.5065407834643152E-01
       0.900450   1.7762658768314421E-04  -6.7356835789550461E-04  -3.1354779971009238E-02  -1.4084701195673401E-02  -1.5439367407783261E-02  -4.0237487737468771E-03  -4.0497822130396627E-01   9.0785531625480875E-01
       0.925463   1.6881905708186393E-04  -7.5745646020299864E-04  -3.1342923158250886E-02   1.8209641979042235E-02  -1.2895885483844833E-02   1.0848853801147567E-02   9.8559969566819938E-01   1.2500403626380613E-01
       0.950475   1.5534591674583480E-04  -8.4592725691238970E-04  -3.6725611476236472E-03   3.7949718670283003E-02   1.4641014445403342E-03   1.7693685375622090E-02  -1.6528058078590629E-01  -9.7902941651500008E-01
       0.975488   1.3687026531336677E-04  -9.3856272391943339E-04   3.0080241396872476E-02   2.6370184438104440E-02   1.6054197297035489E-02   9.5074127844388089E-03  -8.8884112609050003E-01   4.4105236164622502E-01
       1.000500   1.1310870786713734E-04  -1.0348906960694062E-03   4.0794124391171881E-02  -9.4324400229910139E-03   1.7873833057361226E-02  -7.9501857193754830E-03   6.7877722580171174E-01   7.2287602285783081E-01
       1.025513   8.3835862955655217E-05  -1.1343939615860632E-03   1.6909499748602459E-02  -4.0323670810474013E-02   4.0548572128836485E-03  -2.0058239612767328E-02   4.9543222954256305E-01  -8.5821807985925536E-01
       1.050525   4.8887264330229628E-05  -1.2365200210010781E-03  -2.3774119977631115E-02  -3.8869444219584971E-02  -1.4607409511993664E-02  -1.5586478695004872E-02  -9.6415468847527352E-01  -2.2602774403025797E-01
       1.075538   8.1606717667621068E-06  -1.3406911650293044E-03  -4.7242069506759694E-02  -3.6136375413004752E-03  -2.2052535386886642E-02   2.9792015887456832E-03   6.2278195998555129E-02   9.8766994990002710E-01
       1.100550  -3.8384131442434103E-05  -1.4463145408071280E-03  -3.1755733656240598E-02   3.7541465367295600E-02  -1.0781402985535097E-02   2.0470600375870160E-02   9.2689466307316493E-01  -3.4486041155501357E-01
       1.125563  -9.0726922237365141E-05  -1.5527919062138576E-03   1.2229033256952968E-02   4.9442840490747944E-02   1.0802202875399283E-02   2.1442663465963328E-02  -5.9763033388963593E-01  -7.8714954584244423E-01
       1.150575  -1.4878982730344672E-04  -1.6595288145834217E-03   4.8822495900280670E-02   1.9739341042493957E-02   2.4581761660924687E-02   3.7914840739243787E-03  -5.8047480913230465E-01   7.9908646954697415E-01
       1.175588  -2.1244111215199595E-04  -1.7659430232452144E-03   4.6068981463860167E-02  -2.8847463145855533E-02   1.7962271485512691E-02  -1.8412022475924526E-02   9.3213877015456548E-01   3.2458960544520665E-01
       1.200600  -2.8149974613753484E-04  -1.8714719749285743E-03   3.8127670318293745E-03  -5.5881100810040378E-02  -4.6886338641898258E-03  -2.6141671194379053E-02   4.1371764190377178E-02  -9.8555290184151056E-01
       1.225613  -3.5574051533689805E-04  -1.9755792570814424E-03  -4.4218431324980843E-02  -3.6952473640638993E-02  -2.4736098822888235E-02  -1.1739302173343735E-02  -9.5489327911809840E-01   2.4501160639765071E-01
       1.250625  -4.3489946262809928E-04  -2.0777599969419810E-03  -5.7412486254890073E-02   1.4431511475442185E-02  -2.4642734358071933E-02   1.3682275135009164E-02   5.1016313334138463E-01   8.4288660685478656E-01
       1.275638  -5.1867945176351264E-04  -2.1775451967990084E-03  -2.2668560930345839E-02   5.6337291591585348E-02  -3.3033560034669155E-03   2.8786943445795108E-02   6.5917690303873289E-01  -7.3152892109749001E-01
       1.300650  -6.0675567743853664E-04  -2.2745050522046720E-03   3.2994561779387872E-02   5.2739136612521206E-02   2.2056396884761534E-02   1.9961964096166934E-02  -8.9031152430200677E-01  -4.1949440343032551E-01
       1.325663  -6.9878097376682648E-04  -2.3682513248491333E-03   6.3487873411273973E-02   4.4857054945888260E-03   2.9809914351152121E-02  -6.4669618548187733E-03  -1.4431007752365796E-01   9.7306077010163938E-01
       1.350675  -7.9439080661403540E-04  -2.4584388612011311E-03   4.1920910908649918E-02  -4.9721291311423145E-02   1.2400056847946320E-02  -2.8674012489670667E-02   9.7280864275570111E-01  -1.4290938403709255E-01
       1.375688  -8.9320786852023102E-04  -2.5447663585036464E-03  -1.5778294479281321E-02  -6.4473614210234245E-02  -1.6448657656229347E-02  -2.7401318914927603E-02  -4.1769788097953509E-01  -8.8965316109167958E-01
       1.400700  -9.9484622640558175E-04  -2.6269764825541352E-03  -6.2571163381469244E-02  -2.5767117956998625E-02  -3.2551043434354505E-02  -2.6611415334687788E-03  -7.3074276231946034E-01   6.5666841969302547E-01
       1.425713  -1.0989150003062242E-03  -2.7048554385453345E-03  -5.8780242321588953E-02   3.5971349550026573E-02  -2.1580145634953429E-02   2.5415691470165831E-02   8.3949808413436389E-01   5.0966325697659920E-01
       1.450725  -1.2050215749383768E-03  -2.7782320888997017E-03  -5.7525179321886175E-03   6.9872976861265410E-02   8.2236072363504106E-03   3.2995577586959500E-02   2.4527972431355075E-01  -9.5065179165520453E-01
       1.475738  -1.3127743643610488E-03  -2.8469767022431874E-03   5.3862978273431228E-02   4.6651499933711281E-02   3.2197349762411967E-02   1.2803805441251892E-02  -9.8069929155148550E-01   3.9868413958006874E-02
       1.500750  -1.4217851632937898E-03  -2.9109994069529263E-03   7.0532020633402567E-02  -1.6148674041840175E-02   2.9710734805579442E-02  -1.9017828767929283E-02   3.2148329187954888E-01   9.2711418855512395E-01
       1.525763  -1.5316711270334457E-03  -2.9702484122661413E-03   2.9071540569366075E-02  -6.7407769317969560E-02   1.9260369646477999E-03  -3.5832394675715369E-02   7.9448743444130510E-01  -5.7557340429263204E-01
       1.550775  -1.6420564259903127E-03  -3.0247080505566752E-03  -3.7687619653217326E-02  -6.4165851350827724E-02  -2.8431061406199332E-02  -2.2847703470382903E-02  -7.8049263334634400E-01  -5.9413709050431462E-01
       1.575788  -1.7525736214121926E-03  -3.0743966864926579E-03  -7.4984314721196640E-02  -7.6592473772798412E-03  -3.5698905161486251E-02   9.8973805136390227E-03  -3.4314710341937882E-01   9.1878086082546384E-01
       1.600800  -1.8628648067594710E-03  -3.1193645324679785E-03  -5.1154805003741463E-02   5.6595787139104424E-02  -1.3002187111503834E-02   3.5279519517550852E-02   9.7865010803153751E-01   6.2916095754250057E-02
       1.625813  -1.9725825553113356E-03  -3.1596914047731573E-03   1.5510290348685672E-02   7.5582190363632271E-02   2.1343034958405404E-02   3.1603234104218669E-02  -2.2266130221604769E-01  -9.5498989661627243E-01
       1.650825  -2.0813907097221632E-03  -3.1954844510851729E-03   7.0839278801559866E-02   3.2603939482207939E-02   3.8636200781294858E-02   1.1546784494564546E-03  -8.4980599097610987E-01   4.8922676710626872E-01
       1.675838  -2.1889650440765568E-03  -3.2268758765746529E-03   6.8916871633513413E-02  -3.8134311260460033E-02   2.3816831444226597E-02  -3.1077574146925645E-02   7.1403205087758814E-01   6.7205449902840708E-01
       1.700850  -2.2949938240148320E-03  -3.2540206928161714E-03   1.0223342690066823E-02  -7.8843354617680425E-02  -1.1438119571771876E-02  -3.7951547659886051E-02   4.3688447364403954E-01  -8.7787813256470448E-01
       1.725863  -2.3991782860422277E-03  -3.2770945103725050E-03  -5.7933435650341786E-02  -5.5461518630633595E-02  -3.7919178074312138E-02  -1.3056188116823089E-02  -9.6675469365519462E-01  -1.6435236862459979E-01
       1.750875  -2.5012330533484956E-03  -3.2962913921495457E-03  -7.9662530558010966E-02   1.3857341065254299E-02  -3.3129639315549374E-02   2.3387507908524213E-02   1.2228328688909405E-01   9.7303989236252697E-01
       1.775888  -2.6008865023518517E-03  -3.3118217802676469E-03  -3.6394351465667538E-02   7.2896310669805578E-02  -4.0810689816812368E-04   4.0982972619139767E-02   8.9615741643743563E-01  -3.9854265790244919E-01
       1.800900  -2.6978810916298990E-03  -3.3239105042947616E-03   3.7317543356709594E-02   7.3078673166799391E-02   3.3335158612770990E-02   2.4550359268810728E-02  -6.4081263604938143E-01  -7.4263368798536289E-01
       1.825913  -2.7919736627208406E-03  -3.3327948733976381E-03   8.1490701407781418E-02   1.3469828102735669E-02   3.9792553945772358E-02  -1.2790875131937069E-02  -5.2554902303839302E-01   8.2836432744849808E-01
       1.850925  -2.8829357202501014E-03  -3.3387228495588826E-03   5.9618182613016817E-02  -5.7890924964967422E-02   1.3034538478644886E-02  -4.0113986918668500E-02   9.4512766986558661E-01   2.6342820595127592E-01
       1.875938  -2.9705536967481122E-03  -3.3419512938226178E-03  -1.1169944395107455E-02  -8.2818567358431849E-02  -2.5106550155684866E-02  -3.4343899375871151E-02  -2.1336074285030138E-02  -9.8107105439886444E-01
       1.900950  -3.0546292052062393E-03  -3.3427442729465446E-03  -7.3599469717204949E-02  -4.0488682001979422E-02  -4.2888049674972097E-02   2.4403942932403391E-04  -9.3306710106771262E-01   3.0439327694898877E-01
       1.925963  -3.1349792797728013E-03  -3.3413714102245081E-03  -7.6699654349764723E-02   3.5221009081392897E-02  -2.5113669552940830E-02   3.5172401922353907E-02   5.6151596379344315E-01   8.0516930953399146E-01
       1.950975  -3.2114366020088180E-03  -3.3381062619281866E-03  -1.7444606758681851E-02   8.2951065744689606E-02   1.3889455378882604E-02   4.1254477407354620E-02   6.0827450020161145E-01  -7.7067392697805925E-01
       1.975988  -3.2838497068823388E-03  -3.3332247000521478E-03   5.6454566490799440E-02   6.3676623972969304E-02   4.1848412312801363E-02   1.3010603676698394E-02  -9.1392379323742334E-01  -3.5919850908472944E-01
       2.001001  -3.3520831593388243E-03  -3.3270032829892490E-03   8.5080020995242395E-02  -7.4012265133877831E-03   3.5294976610376158E-02  -2.6441753517559903E-02  -7.9243003497943595E-02   9.7895168299250035E-01
       2.026013  -3.4160250426897932E-03  -3.3197168162938701E-03   4.4943762776907856E-02  -7.2938804873880200E-02  -7.2441211430076277E-04  -4.4354192728839482E-02   9.6013581293619843E-01  -2.0762478853474761E-01
       2.051026  -3.4756128826961860E-03  -3.3116326931788395E-03  -3.1798078372596433E-02  -7.9817096387950134E-02  -3.6543691392208470E-02  -2.5570519491889789E-02  -4.7682409602422487E-01  -8.5903680840023844E-01
       2.076038  -3.5307927655206573E-03  -3.3030121291330330E-03  -8.3222537537187780E-02  -2.2208620964534971E-02  -4.2360709716508460E-02   1.4658350548849204E-02  -6.8427203185162255E-01   7.0526867544679284E-01
       2.101051  -3.5815137530716703E-03  -3.2941100413904096E-03  -6.7682697995742100E-02   5.3584061001161233E-02  -1.3059072768908294E-02   4.3095986935526708E-02   8.7334949174266840E-01   4.5078376547715815E-01
       2.126063  -3.6277283724594758E-03  -3.2851743052358467E-03   2.4924910262957931E-03   8.6457208229222871E-02   2.7327944803564458E-02   3.6027294129484959E-02   1.7856308519989458E-01  -9.6662143758039132E-01
       2.151076  -3.6693930130673705E-03  -3.2764448605510886E-03   7.0887538240289177E-02   4.9809510260281256E-02   4.5379409239664451E-02  -9.5506932591629321E-04  -9.7704850880664362E-01   1.0906176737461475E-01
       2.176088  -3.7064682100155380E-03  -3.2681526815366807E-03   8.2452180321810634E-02  -2.6999789315940496E-02   2.5982212251413579E-02  -3.7402643664664934E-02   3.8742593584551371E-01   9.0369956295173515E-01
       2.201101  -3.7389187955004337E-03  -3.2605186282239824E-03   2.7810797945285674E-02  -8.2291200712556814E-02  -1.5024956286455785E-02  -4.3133419734417214E-02   7.5283393365868556E-01  -6.3264563567034371E-01
       2.226113  -3.7667139032408286E-03  -3.2537522034682040E-03  -4.9237585154685529E-02  -7.1664232192032509E-02  -4.3831583125300007E-02  -1.3250973242391672E-02  -8.2367076243409409E-01  -5.3736868754586509E-01
       2.251126  -3.7898268157654990E-03  -3.2480502433674735E-03  -8.6943008037588088E-02  -3.6081024637676547E-03  -3.6582226775104039E-02   2.7702127042335423E-02  -2.7577265681676622E-01   9.4409551192989571E-01
