# population in each right-qubit level over  time for $\ket{\Psi(t=0)} = \ket{01}$ (integrated over all cavity levels)
#        t [ns]            0            1            2            3            4
       0.000000  8.00176E-02  9.19982E-01  1.21602E-31  8.02607E-32  9.17257E-34
       0.010002  8.00174E-02  9.19982E-01  1.59641E-17  8.07856E-32  4.89763E-34
       0.020004  8.00172E-02  9.19981E-01  2.26903E-15  2.22089E-30  2.63610E-34
       0.030006  8.00170E-02  9.19980E-01  5.06482E-14  1.04608E-27  1.45610E-34
       0.040008  8.00168E-02  9.19980E-01  4.77678E-13  9.29750E-26  8.50353E-35
       0.050010  8.00166E-02  9.19979E-01  2.75467E-12  3.09122E-24  5.18555E-35
       0.060012  8.00164E-02  9.19978E-01  1.15707E-11  5.45258E-23  1.14249E-34
       0.070014  8.00162E-02  9.19978E-01  3.89688E-11  6.18273E-22  4.01128E-33
       0.080016  8.00160E-02  9.19977E-01  1.11537E-10  5.06330E-21  9.36539E-32
       0.090018  8.00158E-02  9.19976E-01  2.81797E-10  3.23066E-20  1.45973E-30
       0.100020  8.00156E-02  9.19975E-01  6.45025E-10  1.69191E-19  1.68205E-29
       0.110022  8.00154E-02  9.19975E-01  1.36284E-09  7.54916E-19  1.52293E-28
       0.120024  8.00152E-02  9.19974E-01  2.69491E-09  2.95024E-18  1.13047E-27
       0.130026  8.00150E-02  9.19973E-01  5.04011E-09  1.03132E-17  7.10227E-27
       0.140028  8.00148E-02  9.19973E-01  8.98858E-09  3.27803E-17  3.87072E-26
       0.150030  8.00146E-02  9.19972E-01  1.53858E-08  9.59776E-17  1.86603E-25
       0.160032  8.00145E-02  9.19971E-01  2.54101E-08  2.61588E-16  8.08373E-25
       0.170034  8.00143E-02  9.19970E-01  4.06643E-08  6.69403E-16  3.18758E-24
       0.180036  8.00141E-02  9.19970E-01  6.32833E-08  1.61984E-15  1.15638E-23
       0.190038  8.00139E-02  9.19969E-01  9.60567E-08  3.72873E-15  3.89411E-23
       0.200040  8.00137E-02  9.19968E-01  1.42570E-07  8.20632E-15  1.22651E-22
       0.210042  8.00136E-02  9.19967E-01  2.07359E-07  1.73423E-14  3.63655E-22
       0.220044  8.00134E-02  9.19967E-01  2.96088E-07  3.53221E-14  1.02065E-21
       0.230046  8.00133E-02  9.19966E-01  4.15739E-07  6.95610E-14  2.72471E-21
       0.240048  8.00132E-02  9.19965E-01  5.74816E-07  1.32826E-13  6.94773E-21
       0.250050  8.00131E-02  9.19964E-01  7.83578E-07  2.46527E-13  1.69841E-20
       0.260052  8.00130E-02  9.19963E-01  1.05427E-06  4.45713E-13  3.99325E-20
       0.270054  8.00130E-02  9.19961E-01  1.40138E-06  7.86486E-13  9.05619E-20
       0.280056  8.00130E-02  9.19960E-01  1.84190E-06  1.35681E-12  1.98615E-19
       0.290058  8.00131E-02  9.19959E-01  2.39562E-06  2.29193E-12  4.22202E-19
       0.300060  8.00132E-02  9.19957E-01  3.08538E-06  3.79612E-12  8.71691E-19
       0.310062  8.00135E-02  9.19955E-01  3.93740E-06  6.17267E-12  1.75123E-18
       0.320064  8.00138E-02  9.19953E-01  4.98155E-06  9.86482E-12  3.42919E-18
       0.330066  8.00142E-02  9.19950E-01  6.25164E-06  1.55107E-11  6.55487E-18
       0.340068  8.00147E-02  9.19947E-01  7.78575E-06  2.40160E-11  1.22479E-17
       0.350070  8.00154E-02  9.19944E-01  9.62649E-06  3.66495E-11  2.23993E-17
       0.360072  8.00163E-02  9.19940E-01  1.18213E-05  5.51655E-11  4.01402E-17
       0.370074  8.00174E-02  9.19935E-01  1.44227E-05  8.19614E-11  7.05598E-17
       0.380076  8.00186E-02  9.19930E-01  1.74885E-05  1.20276E-10  1.21784E-16
       0.390078  8.00202E-02  9.19924E-01  2.10823E-05  1.74435E-10  2.06569E-16
       0.400080  8.00220E-02  9.19917E-01  2.52732E-05  2.50160E-10  3.44623E-16
       0.410082  8.00242E-02  9.19909E-01  3.01365E-05  3.54941E-10  5.65921E-16
       0.420084  8.00267E-02  9.19900E-01  3.57535E-05  4.98488E-10  9.15395E-16
       0.430086  8.00296E-02  9.19889E-01  4.22121E-05  6.93278E-10  1.45945E-15
       0.440088  8.00330E-02  9.19878E-01  4.96061E-05  9.55196E-10  2.29488E-15
       0.450090  8.00369E-02  9.19864E-01  5.80360E-05  1.30430E-09  3.56099E-15
       0.460092  8.00414E-02  9.19850E-01  6.76086E-05  1.76571E-09  5.45572E-15
       0.470094  8.00465E-02  9.19833E-01  7.84373E-05  2.37062E-09  8.25694E-15
       0.480096  8.00523E-02  9.19814E-01  9.06415E-05  3.15749E-09  1.23502E-14
       0.490098  8.00588E-02  9.19793E-01  1.04347E-04  4.17340E-09  1.82642E-14
       0.500100  8.00661E-02  9.19769E-01  1.19685E-04  5.47550E-09  2.67168E-14
       0.510102  8.00744E-02  9.19743E-01  1.36794E-04  7.13274E-09  3.86710E-14
       0.520104  8.00836E-02  9.19713E-01  1.55816E-04  9.22775E-09  5.54068E-14
       0.530106  8.00938E-02  9.19681E-01  1.76900E-04  1.18588E-08  7.86074E-14
       0.540108  8.01052E-02  9.19646E-01  2.00197E-04  1.51421E-08  1.10465E-13
       0.550110  8.01178E-02  9.19606E-01  2.25865E-04  1.92141E-08  1.53809E-13
       0.560112  8.01317E-02  9.19563E-01  2.54065E-04  2.42342E-08  2.12253E-13
       0.570114  8.01471E-02  9.19516E-01  2.84960E-04  3.03872E-08  2.90375E-13
       0.580116  8.01639E-02  9.19464E-01  3.18716E-04  3.78862E-08  3.93921E-13
       0.590118  8.01823E-02  9.19408E-01  3.55503E-04  4.69756E-08  5.30039E-13
       0.600120  8.02024E-02  9.19347E-01  3.95488E-04  5.79338E-08  7.07547E-13
       0.610122  8.02243E-02  9.19281E-01  4.38843E-04  7.10763E-08  9.37230E-13
       0.620124  8.02480E-02  9.19209E-01  4.85735E-04  8.67585E-08  1.23217E-12
       0.630126  8.02738E-02  9.19132E-01  5.36335E-04  1.05378E-07  1.60809E-12
       0.640128  8.03017E-02  9.19048E-01  5.90806E-04  1.27380E-07  2.08377E-12
       0.650130  8.03319E-02  9.18959E-01  6.49314E-04  1.53253E-07  2.68142E-12
       0.660132  8.03643E-02  9.18862E-01  7.12016E-04  1.83539E-07  3.42713E-12
       0.670134  8.03991E-02  9.18759E-01  7.79067E-04  2.18831E-07  4.35127E-12
       0.680136  8.04365E-02  9.18649E-01  8.50615E-04  2.59773E-07  5.48893E-12
       0.690138  8.04766E-02  9.18532E-01  9.26803E-04  3.07063E-07  6.88035E-12
       0.700140  8.05193E-02  9.18407E-01  1.00776E-03  3.61455E-07  8.57128E-12
       0.710142  8.05649E-02  9.18274E-01  1.09362E-03  4.23751E-07  1.06133E-11
       0.720144  8.06135E-02  9.18134E-01  1.18450E-03  4.94810E-07  1.30643E-11
       0.730146  8.06650E-02  9.17985E-01  1.28050E-03  5.75537E-07  1.59882E-11
       0.740148  8.07197E-02  9.17828E-01  1.38171E-03  6.66883E-07  1.94557E-11
       0.750150  8.07777E-02  9.17662E-01  1.48822E-03  7.69844E-07  2.35438E-11
       0.760152  8.08389E-02  9.17488E-01  1.60010E-03  8.85451E-07  2.83360E-11
       0.770154  8.09034E-02  9.17305E-01  1.71740E-03  1.01477E-06  3.39215E-11
       0.780156  8.09715E-02  9.17113E-01  1.84017E-03  1.15888E-06  4.03957E-11
       0.790158  8.10430E-02  9.16912E-01  1.96844E-03  1.31890E-06  4.78585E-11
       0.800160  8.11182E-02  9.16701E-01  2.10221E-03  1.49593E-06  5.64143E-11
       0.810162  8.11970E-02  9.16482E-01  2.24148E-03  1.69109E-06  6.61708E-11
       0.820164  8.12795E-02  9.16253E-01  2.38623E-03  1.90547E-06  7.72375E-11
       0.830166  8.13657E-02  9.16015E-01  2.53643E-03  2.14014E-06  8.97251E-11
       0.840168  8.14557E-02  9.15768E-01  2.69202E-03  2.39615E-06  1.03743E-10
       0.850170  8.15496E-02  9.15512E-01  2.85293E-03  2.67448E-06  1.19399E-10
       0.860172  8.16473E-02  9.15247E-01  3.01909E-03  2.97606E-06  1.36797E-10
       0.870174  8.17488E-02  9.14972E-01  3.19037E-03  3.30173E-06  1.56032E-10
       0.880176  8.18542E-02  9.14689E-01  3.36667E-03  3.65227E-06  1.77195E-10
       0.890178  8.19635E-02  9.14397E-01  3.54784E-03  4.02833E-06  2.00364E-10
       0.900180  8.20767E-02  9.14096E-01  3.73374E-03  4.43046E-06  2.25605E-10
       0.910182  8.21937E-02  9.13787E-01  3.92420E-03  4.85908E-06  2.52973E-10
       0.920184  8.23146E-02  9.13470E-01  4.11904E-03  5.31446E-06  2.82504E-10
       0.930186  8.24393E-02  9.13144E-01  4.31805E-03  5.79673E-06  3.14216E-10
       0.940188  8.25677E-02  9.12811E-01  4.52103E-03  6.30587E-06  3.48111E-10
       0.950190  8.27000E-02  9.12470E-01  4.72776E-03  6.84166E-06  3.84167E-10
       0.960192  8.28359E-02  9.12122E-01  4.93799E-03  7.40373E-06  4.22343E-10
       0.970194  8.29754E-02  9.11768E-01  5.15148E-03  7.99152E-06  4.62574E-10
       0.980196  8.31186E-02  9.11406E-01  5.36797E-03  8.60428E-06  5.04774E-10
       0.990198  8.32652E-02  9.11038E-01  5.58720E-03  9.24106E-06  5.48831E-10
       1.000200  8.34154E-02  9.10664E-01  5.80888E-03  9.90073E-06  5.94613E-10
       1.010202  8.35689E-02  9.10285E-01  6.03275E-03  1.05820E-05  6.41966E-10
       1.020204  8.37257E-02  9.09901E-01  6.25849E-03  1.12833E-05  6.90712E-10
       1.030206  8.38857E-02  9.09511E-01  6.48583E-03  1.20030E-05  7.40658E-10
       1.040208  8.40488E-02  9.09118E-01  6.71447E-03  1.27392E-05  7.91588E-10
       1.050210  8.42149E-02  9.08720E-01  6.94409E-03  1.34899E-05  8.43273E-10
       1.060212  8.43840E-02  9.08318E-01  7.17440E-03  1.42529E-05  8.95471E-10
       1.070214  8.45559E-02  9.07914E-01  7.40510E-03  1.50258E-05  9.47926E-10
       1.080216  8.47306E-02  9.07506E-01  7.63588E-03  1.58063E-05  1.00037E-09
       1.090218  8.49078E-02  9.07097E-01  7.86643E-03  1.65917E-05  1.05255E-09
       1.100220  8.50876E-02  9.06685E-01  8.09647E-03  1.73794E-05  1.10418E-09
       1.110222  8.52697E-02  9.06271E-01  8.32569E-03  1.81666E-05  1.15499E-09
       1.120224  8.54542E-02  9.05857E-01  8.55380E-03  1.89506E-05  1.20472E-09
       1.130226  8.56408E-02  9.05441E-01  8.78052E-03  1.97285E-05  1.25311E-09
       1.140228  8.58296E-02  9.05025E-01  9.00557E-03  2.04974E-05  1.29990E-09
       1.150230  8.60203E-02  9.04610E-01  9.22867E-03  2.12544E-05  1.34485E-09
       1.160232  8.62128E-02  9.04194E-01  9.44957E-03  2.19968E-05  1.38774E-09
       1.170234  8.64071E-02  9.03780E-01  9.66802E-03  2.27218E-05  1.42836E-09
       1.180236  8.66031E-02  9.03366E-01  9.88375E-03  2.34265E-05  1.46652E-09
       1.190238  8.68006E-02  9.02954E-01  1.00965E-02  2.41083E-05  1.50205E-09
       1.200240  8.69996E-02  9.02543E-01  1.03062E-02  2.47646E-05  1.53479E-09
       1.210242  8.71999E-02  9.02135E-01  1.05124E-02  2.53931E-05  1.56464E-09
       1.220244  8.74014E-02  9.01729E-01  1.07151E-02  2.59913E-05  1.59147E-09
       1.230246  8.76042E-02  9.01325E-01  1.09141E-02  2.65572E-05  1.61522E-09
       1.240248  8.78080E-02  9.00925E-01  1.11090E-02  2.70886E-05  1.63582E-09
       1.250250  8.80128E-02  9.00527E-01  1.12999E-02  2.75838E-05  1.65325E-09
       1.260252  8.82185E-02  9.00133E-01  1.14866E-02  2.80410E-05  1.66750E-09
       1.270254  8.84251E-02  8.99743E-01  1.16688E-02  2.84589E-05  1.67857E-09
       1.280256  8.86324E-02  8.99356E-01  1.18465E-02  2.88360E-05  1.68651E-09
       1.290258  8.88405E-02  8.98974E-01  1.20197E-02  2.91714E-05  1.69137E-09
       1.300260  8.90492E-02  8.98595E-01  1.21880E-02  2.94642E-05  1.69321E-09
       1.310262  8.92585E-02  8.98221E-01  1.23516E-02  2.97136E-05  1.69213E-09
       1.320264  8.94684E-02  8.97851E-01  1.25103E-02  2.99193E-05  1.68823E-09
       1.330266  8.96788E-02  8.97485E-01  1.26641E-02  3.00810E-05  1.68162E-09
       1.340268  8.98897E-02  8.97124E-01  1.28129E-02  3.01986E-05  1.67244E-09
       1.350270  9.01010E-02  8.96768E-01  1.29566E-02  3.02724E-05  1.66082E-09
       1.360272  9.03127E-02  8.96416E-01  1.30953E-02  3.03026E-05  1.64690E-09
       1.370274  9.05249E-02  8.96070E-01  1.32289E-02  3.02897E-05  1.63084E-09
       1.380276  9.07375E-02  8.95727E-01  1.33575E-02  3.02346E-05  1.61279E-09
       1.390278  9.09504E-02  8.95390E-01  1.34810E-02  3.01380E-05  1.59290E-09
       1.400280  9.11637E-02  8.95057E-01  1.35994E-02  3.00011E-05  1.57135E-09
       1.410282  9.13775E-02  8.94729E-01  1.37129E-02  2.98250E-05  1.54828E-09
       1.420284  9.15916E-02  8.94405E-01  1.38213E-02  2.96111E-05  1.52385E-09
       1.430286  9.18062E-02  8.94086E-01  1.39248E-02  2.93608E-05  1.49821E-09
       1.440288  9.20212E-02  8.93772E-01  1.40234E-02  2.90759E-05  1.47152E-09
       1.450290  9.22367E-02  8.93462E-01  1.41172E-02  2.87579E-05  1.44392E-09
       1.460292  9.24528E-02  8.93156E-01  1.42062E-02  2.84087E-05  1.41555E-09
       1.470294  9.26694E-02  8.92854E-01  1.42905E-02  2.80302E-05  1.38656E-09
       1.480296  9.28866E-02  8.92557E-01  1.43702E-02  2.76244E-05  1.35705E-09
       1.490298  9.31044E-02  8.92263E-01  1.44453E-02  2.71933E-05  1.32717E-09
       1.500300  9.33230E-02  8.91973E-01  1.45160E-02  2.67391E-05  1.29701E-09
       1.510302  9.35424E-02  8.91687E-01  1.45822E-02  2.62638E-05  1.26670E-09
       1.520304  9.37626E-02  8.91404E-01  1.46442E-02  2.57698E-05  1.23634E-09
       1.530306  9.39837E-02  8.91125E-01  1.47020E-02  2.52591E-05  1.20601E-09
       1.540308  9.42059E-02  8.90848E-01  1.47557E-02  2.47342E-05  1.17582E-09
       1.550310  9.44291E-02  8.90575E-01  1.48054E-02  2.41971E-05  1.14583E-09
       1.560312  9.46534E-02  8.90304E-01  1.48512E-02  2.36503E-05  1.11614E-09
       1.570314  9.48791E-02  8.90036E-01  1.48932E-02  2.30960E-05  1.08680E-09
       1.580316  9.51061E-02  8.89770E-01  1.49314E-02  2.25365E-05  1.05790E-09
       1.590318  9.53345E-02  8.89506E-01  1.49661E-02  2.19739E-05  1.02949E-09
       1.600320  9.55645E-02  8.89244E-01  1.49973E-02  2.14107E-05  1.00163E-09
       1.610322  9.57961E-02  8.88985E-01  1.50251E-02  2.08490E-05  9.74379E-10
       1.620324  9.60296E-02  8.88726E-01  1.50495E-02  2.02910E-05  9.47791E-10
       1.630326  9.62648E-02  8.88469E-01  1.50708E-02  1.97390E-05  9.21919E-10
       1.640328  9.65021E-02  8.88213E-01  1.50889E-02  1.91951E-05  8.96812E-10
       1.650330  9.67415E-02  8.87958E-01  1.51040E-02  1.86615E-05  8.72523E-10
       1.660332  9.69831E-02  8.87703E-01  1.51162E-02  1.81403E-05  8.49101E-10
       1.670334  9.72271E-02  8.87450E-01  1.51255E-02  1.76335E-05  8.26600E-10
       1.680336  9.74736E-02  8.87196E-01  1.51321E-02  1.71432E-05  8.05073E-10
       1.690338  9.77226E-02  8.86942E-01  1.51361E-02  1.66714E-05  7.84576E-10
       1.700340  9.79744E-02  8.86688E-01  1.51374E-02  1.62202E-05  7.65169E-10
       1.710342  9.82291E-02  8.86434E-01  1.51362E-02  1.57914E-05  7.46913E-10
       1.720344  9.84868E-02  8.86179E-01  1.51326E-02  1.53870E-05  7.29877E-10
       1.730346  9.87476E-02  8.85924E-01  1.51267E-02  1.50088E-05  7.14133E-10
       1.740348  9.90116E-02  8.85667E-01  1.51185E-02  1.46587E-05  6.99758E-10
       1.750350  9.92791E-02  8.85409E-01  1.51080E-02  1.43385E-05  6.86837E-10
       1.760352  9.95501E-02  8.85150E-01  1.50954E-02  1.40499E-05  6.75460E-10
       1.770354  9.98248E-02  8.84889E-01  1.50807E-02  1.37946E-05  6.65726E-10
       1.780356  1.00103E-01  8.84627E-01  1.50640E-02  1.35742E-05  6.57739E-10
       1.790358  1.00386E-01  8.84362E-01  1.50453E-02  1.33904E-05  6.51613E-10
       1.800360  1.00672E-01  8.84095E-01  1.50247E-02  1.32447E-05  6.47470E-10
       1.810362  1.00963E-01  8.83825E-01  1.50023E-02  1.31386E-05  6.45440E-10
       1.820364  1.01258E-01  8.83553E-01  1.49780E-02  1.30736E-05  6.45661E-10
       1.830366  1.01558E-01  8.83279E-01  1.49520E-02  1.30509E-05  6.48280E-10
       1.840368  1.01862E-01  8.83001E-01  1.49243E-02  1.30719E-05  6.53454E-10
       1.850370  1.02171E-01  8.82720E-01  1.48949E-02  1.31377E-05  6.61347E-10
       1.860372  1.02485E-01  8.82436E-01  1.48639E-02  1.32495E-05  6.72131E-10
       1.870374  1.02804E-01  8.82148E-01  1.48313E-02  1.34084E-05  6.85985E-10
       1.880376  1.03129E-01  8.81856E-01  1.47972E-02  1.36152E-05  7.03096E-10
       1.890378  1.03458E-01  8.81561E-01  1.47615E-02  1.38708E-05  7.23658E-10
       1.900380  1.03793E-01  8.81262E-01  1.47244E-02  1.41759E-05  7.47870E-10
       1.910382  1.04134E-01  8.80958E-01  1.46859E-02  1.45311E-05  7.75934E-10
       1.920384  1.04480E-01  8.80650E-01  1.46461E-02  1.49369E-05  8.08058E-10
       1.930386  1.04832E-01  8.80337E-01  1.46048E-02  1.53937E-05  8.44450E-10
       1.940388  1.05190E-01  8.80020E-01  1.45623E-02  1.59016E-05  8.85320E-10
       1.950390  1.05554E-01  8.79698E-01  1.45185E-02  1.64606E-05  9.30877E-10
       1.960392  1.05925E-01  8.79371E-01  1.44735E-02  1.70708E-05  9.81326E-10
       1.970394  1.06301E-01  8.79039E-01  1.44273E-02  1.77317E-05  1.03687E-09
       1.980396  1.06684E-01  8.78701E-01  1.43800E-02  1.84431E-05  1.09770E-09
       1.990398  1.07074E-01  8.78358E-01  1.43316E-02  1.92041E-05  1.16401E-09
       2.000400  1.07470E-01  8.78009E-01  1.42821E-02  2.00141E-05  1.23597E-09
       2.010402  1.07873E-01  8.77655E-01  1.42317E-02  2.08721E-05  1.31374E-09
       2.020404  1.08282E-01  8.77294E-01  1.41802E-02  2.17769E-05  1.39748E-09
       2.030406  1.08699E-01  8.76928E-01  1.41279E-02  2.27270E-05  1.48732E-09
       2.040408  1.09122E-01  8.76555E-01  1.40747E-02  2.37211E-05  1.58337E-09
       2.050410  1.09553E-01  8.76176E-01  1.40208E-02  2.47572E-05  1.68572E-09
       2.060412  1.09991E-01  8.75791E-01  1.39660E-02  2.58335E-05  1.79446E-09
       2.070414  1.10436E-01  8.75398E-01  1.39107E-02  2.69479E-05  1.90962E-09
       2.080416  1.10888E-01  8.75000E-01  1.38546E-02  2.80980E-05  2.03124E-09
       2.090418  1.11348E-01  8.74594E-01  1.37981E-02  2.92813E-05  2.15930E-09
       2.100420  1.11816E-01  8.74181E-01  1.37410E-02  3.04951E-05  2.29377E-09
       2.110422  1.12290E-01  8.73761E-01  1.36836E-02  3.17366E-05  2.43459E-09
       2.120424  1.12773E-01  8.73333E-01  1.36258E-02  3.30027E-05  2.58165E-09
       2.130426  1.13263E-01  8.72898E-01  1.35678E-02  3.42903E-05  2.73484E-09
       2.140428  1.13762E-01  8.72456E-01  1.35095E-02  3.55959E-05  2.89398E-09
       2.150430  1.14268E-01  8.72005E-01  1.34512E-02  3.69162E-05  3.05888E-09
       2.160432  1.14781E-01  8.71547E-01  1.33929E-02  3.82474E-05  3.22931E-09
       2.170434  1.15303E-01  8.71080E-01  1.33346E-02  3.95858E-05  3.40501E-09
       2.180436  1.15833E-01  8.70606E-01  1.32764E-02  4.09276E-05  3.58566E-09
       2.190438  1.16371E-01  8.70123E-01  1.32185E-02  4.22689E-05  3.77095E-09
       2.200440  1.16918E-01  8.69631E-01  1.31610E-02  4.36054E-05  3.96051E-09
       2.210442  1.17472E-01  8.69131E-01  1.31038E-02  4.49333E-05  4.15393E-09
       2.220444  1.18035E-01  8.68622E-01  1.30471E-02  4.62482E-05  4.35080E-09
       2.230446  1.18606E-01  8.68104E-01  1.29910E-02  4.75460E-05  4.55064E-09
       2.240448  1.19186E-01  8.67577E-01  1.29356E-02  4.88225E-05  4.75297E-09
       2.250450  1.19774E-01  8.67041E-01  1.28810E-02  5.00734E-05  4.95727E-09
       2.260452  1.20371E-01  8.66495E-01  1.28272E-02  5.12946E-05  5.16302E-09
       2.270454  1.20976E-01  8.65940E-01  1.27744E-02  5.24817E-05  5.36963E-09
       2.280456  1.21590E-01  8.65375E-01  1.27226E-02  5.36307E-05  5.57653E-09
       2.290458  1.22212E-01  8.64800E-01  1.26719E-02  5.47375E-05  5.78310E-09
       2.300460  1.22844E-01  8.64216E-01  1.26225E-02  5.57980E-05  5.98873E-09
       2.310462  1.23484E-01  8.63621E-01  1.25744E-02  5.68083E-05  6.19278E-09
       2.320464  1.24133E-01  8.63016E-01  1.25277E-02  5.77647E-05  6.39458E-09
       2.330466  1.24791E-01  8.62401E-01  1.24824E-02  5.86633E-05  6.59349E-09
       2.340468  1.25458E-01  8.61775E-01  1.24387E-02  5.95008E-05  6.78882E-09
       2.350470  1.26134E-01  8.61138E-01  1.23967E-02  6.02737E-05  6.97989E-09
       2.360472  1.26819E-01  8.60491E-01  1.23564E-02  6.09788E-05  7.16603E-09
       2.370474  1.27514E-01  8.59833E-01  1.23180E-02  6.16131E-05  7.34654E-09
       2.380476  1.28217E-01  8.59163E-01  1.22814E-02  6.21739E-05  7.52074E-09
       2.390478  1.28930E-01  8.58483E-01  1.22468E-02  6.26585E-05  7.68797E-09
       2.400480  1.29652E-01  8.57791E-01  1.22143E-02  6.30646E-05  7.84753E-09
       2.410482  1.30383E-01  8.57088E-01  1.21839E-02  6.33903E-05  7.99878E-09
       2.420484  1.31124E-01  8.56373E-01  1.21557E-02  6.36336E-05  8.14106E-09
       2.430486  1.31875E-01  8.55646E-01  1.21298E-02  6.37931E-05  8.27375E-09
