#        t [ns]             Re[<00|Psi>]             Im[<00|Psi>]             Re[<01|Psi>]             Im[<01|Psi>]             Re[<10|Psi>]             Im[<10|Psi>]             Re[<11|Psi>]             Im[<11|Psi>]
       0.000000   0.0000000000000000E+00   0.0000000000000000E+00   1.0000000000000002E+00   0.0000000000000000E+00   5.5511151231256798E-17   0.0000000000000000E+00   2.5163331506687795E-16   0.0000000000000000E+00
       0.010002  -2.6485433414241757E-07  -1.8943361221254552E-07   9.3244733105180599E-01  -3.6130469065799753E-01  -6.4812215344600701E-08   2.5348114898737827E-08   8.9880044326685661E-08  -4.2707069932547285E-07
       0.020004  -2.6168277027118465E-06  -1.8951312165919736E-06   7.3891694562316756E-01  -6.7379518893553347E-01  -1.0226162612536598E-07   9.4433775660319041E-08  -2.2206529472865126E-06  -3.7176634467284261E-06
       0.030006  -9.0614596882965241E-06  -6.6331948302264199E-06   4.4555577103173033E-01  -8.9525268307636718E-01  -9.1308529730214901E-08   1.8788714561957031E-07  -1.4437373043396886E-05  -4.2540173736394062E-06
       0.040008  -2.1518254400286200E-05  -1.5915545023093374E-05   9.1998295363905427E-02  -9.9575735941281140E-01  -2.2181093489722354E-08   2.7818614359298348E-07  -3.2155738481003202E-05   1.5899954812605945E-05
       0.050010  -4.1819829019971311E-05  -3.1245755838924818E-05  -2.7398823427305208E-01  -9.6173068961557284E-01   1.0134005067053286E-07   3.3567069931960632E-07  -2.5031855647208931E-05   6.5336763037935705E-05
       0.060012  -7.1711169297567303E-05  -5.4114925851758037E-05  -6.0295737591972742E-01  -7.9776994070532803E-01   2.6285124983538183E-07   3.3458572232246515E-07   4.4640614941752785E-05   1.1182976825405139E-04
       0.070014  -1.1284899541632150E-04  -8.5997590671747906E-05  -8.5046391936962218E-01  -5.2602706583483005E-01   4.3680216195439352E-07   2.5730117254872618E-07   1.7161687103240899E-04   8.1920534880863913E-05
       0.080016  -1.6680124096665240E-04  -1.2834768211010642E-04  -9.8306863252643051E-01  -1.8321589375582745E-01   5.9267835969542222E-07   9.5643980541069175E-08   2.6947471561117255E-04  -8.3427379177945118E-05
       0.090018  -2.3504664704905652E-04  -1.8259453906517133E-04  -9.8285607509479844E-01   1.8434804881226854E-01   6.9759765464190980E-07  -1.5015808694365922E-07   1.9995474626196847E-04  -3.4520799025215170E-04
       0.100020  -3.1897447278311596E-04  -2.5013897502556789E-04  -8.4985511248440748E-01   5.2700496084477411E-01   7.1580178151452147E-07  -4.7267988592663597E-07  -1.1883970860234304E-04  -5.3017024646547450E-04
       0.110022  -4.1988432277335728E-04  -3.3234940692726826E-04  -6.0203510144658678E-01   7.9846006074805476E-01   6.0555626346662783E-07  -8.5539808002125525E-07  -5.9044836922591399E-04  -4.0813059809766708E-04
       0.120024  -5.3898609139980741E-04  -4.3055804997247271E-04  -2.7287823393127680E-01   9.6203832209132190E-01   3.1665880772396059E-07  -1.2650105605526847E-06  -9.1554358462224363E-04   1.2960716762686715E-04
       0.130026  -6.7740002318710066E-04  -5.4605718294109822E-04   9.3144024047118704E-02   9.9563961791115330E-01  -2.0604826531434306E-07  -1.6378575193598996E-06  -7.3766817032908669E-04   9.0336583897115291E-04
       0.140028  -8.3615688798234088E-04  -6.8009548851898690E-04   4.4657930579708660E-01   8.9472478764847085E-01  -1.0074195877575931E-06  -1.8644677823727497E-06   8.7489522121714599E-05   1.4421076358786325E-03
       0.150030  -1.0161982692560750E-03  -8.3387447324627633E-04   7.3967582131480691E-01   6.7292913105145358E-01  -2.0918076454740510E-06  -1.7807092199952936E-06   1.2712952996653203E-03   1.2201684688516077E-03
       0.160032  -1.2183769635456165E-03  -1.0085449718671197E-03   9.3283425433516276E-01   3.6022034291548199E-01  -3.3803652913502175E-06  -1.1768803293081910E-06   2.1197883661933149E-03   4.1545807237420486E-05
       0.170034  -1.4434574888945195E-03  -1.2052037411461785E-03   9.9995835246459142E-01  -1.1503552291640688E-03  -4.6660044222272099E-06   1.6465348215429119E-07   1.8857237163416758E-03  -1.6728460895398005E-03
       0.180036  -1.6921167001104672E-03  -1.4248901486124512E-03   9.3198120477677615E-01  -3.6235696149682295E-01  -5.5837180908960497E-06   2.3983400330027218E-06   2.9588488541923831E-04  -2.9506903017593542E-03
       0.190038  -1.9649445087662402E-03  -1.6685829621969287E-03   7.3809061261243325E-01  -6.7459607489271189E-01  -5.6183390467895851E-06   5.5164643535254249E-06  -2.0782234330290641E-03  -2.7610416123203816E-03
       0.200040  -2.2624447061007553E-03  -1.9371972473427028E-03   4.4448779331767063E-01  -8.9568151176768740E-01  -4.1699928261942169E-06   9.2415795047572660E-06  -3.9281426852299170E-03  -7.1661061190521802E-04
       0.210042  -2.5850358873308592E-03  -2.2315813788759101E-03   9.0846938942425751E-02  -9.9574501457038955E-01  -6.8759431399585675E-07   1.2942733492615913E-05  -3.8676443945999000E-03   2.4498982445452897E-03
       0.220044  -2.9330524763476785E-03  -2.5525141757199244E-03  -2.7504613460145610E-01  -9.6127257424372003E-01   5.1371215683833517E-06   1.5615822410885590E-05  -1.3456785158421256E-03   5.0360614498175188E-03
       0.230046  -3.3067458503285114E-03  -2.9007021673962533E-03  -6.0375185144490795E-01  -7.9693069171978026E-01   1.3145561133493280E-05   1.5966559122198237E-05   2.7436097327221800E-03   5.2202022885395301E-03
       0.240048  -3.7062855644273886E-03  -3.2767770021627490E-03  -8.5085852852519750E-01  -5.2493550762061536E-01   2.2511571870705987E-05   1.2619876733301432E-05   6.2486539144122463E-03   2.2239807370632993E-03
       0.250050  -4.1317606773935544E-03  -3.6812930075683157E-03  -9.8298467805603595E-01  -1.8204980901727005E-01   3.1633015813019548E-05   4.4519744618951066E-06   6.8250582875650015E-03  -2.9096756548379014E-03
       0.260052  -4.5831811796833207E-03  -4.1147249151259890E-03  -9.8229047699540273E-01   1.8538638910253580E-01   3.8185797749888664E-05  -8.9956412698123855E-06   3.3893582456094927E-03  -7.5304840814494900E-03
       0.270054  -5.0604795263517318E-03  -4.5774657616933310E-03  -8.4888831357635552E-01   5.2772004555963126E-01   3.9392293916111987E-05  -2.7099360940015238E-05  -2.8945758393207287E-03  -8.6789971967173012E-03
       0.280056  -5.5635122777099441E-03  -5.0698249809688622E-03  -6.0082627498425689E-01   7.9869721703546681E-01   3.2517226703762988E-05  -4.7843266125736468E-05  -8.8369067344839704E-03  -4.8746243997027823E-03
       0.290058  -6.0920618513847103E-03  -5.5920266992336579E-03  -2.7164660002803748E-01   9.6171549085293540E-01   1.5548624891234811E-05  -6.7735626591124243E-05  -1.0768306493579804E-02   2.6427658543453241E-03
       0.300060  -6.6458383899909348E-03  -6.1442082500557365E-03   9.4150875391136188E-02   9.9477110477799846E-01  -1.2040643288005197E-05  -8.2054949058552189E-05  -6.7056646198687250E-03   1.0114868275918766E-02
       0.310062  -7.2244817491003864E-03  -6.7264189230993535E-03   4.4712677899283804E-01   8.9343155025244703E-01  -4.8609982342391162E-05  -8.5479435824752575E-05   2.0986696060213026E-03   1.3068169800190073E-02
       0.320064  -7.8275636105338761E-03  -7.3386189624122401E-03   7.3958771105364163E-01   6.7143149171626904E-01  -8.9937271685880271E-05  -7.3076492856957872E-05   1.1304061524083140E-02   8.8996771263144085E-03
       0.330066  -8.4545897261970922E-03  -7.9806788295730454E-03   9.3203469767500735E-01   3.5881139547118224E-01  -1.2925812448719360E-04  -4.1535009367414404E-05   1.5542425593513398E-02  -1.2087923987705255E-03
       0.340068  -9.1050022977003393E-03  -8.6523787468447844E-03   9.9850205847221785E-01  -2.1491602845594530E-03  -1.5788955401866222E-04   9.5689338847538666E-06   1.1463618177557132E-02  -1.2338410651843598E-02
       0.350070  -9.7781824968319817E-03  -9.3534085349776062E-03   9.3006429044692929E-01  -3.6265296405938319E-01  -1.6647140228829072E-04   7.6749872545469572E-05   7.6110161971310524E-05  -1.8143714210083119E-02
       0.360072  -1.0473453131578804E-02  -1.0083367759521058E-02   7.3603658283651308E-01  -6.7398683510903412E-01  -1.4672731920059687E-04   1.5213227600701247E-04  -1.3147851312351489E-02  -1.4392911875133150E-02
       0.370074  -1.1190081461793700E-02  -1.0841766198431744E-02   4.4270691064630019E-01  -8.9410968538557001E-01  -9.3504382699162959E-05   2.2376767088524028E-04  -2.0814025274807576E-02  -1.7988767870016544E-03
       0.380076  -1.1927282167795102E-02  -1.1628024642394331E-02   8.9771996612971541E-02  -9.9333510028549166E-01  -6.7266600890256421E-06   2.7689618942591988E-04  -1.7670479189119237E-02   1.3660360063233215E-02
       0.390078  -1.2684220474141781E-02  -1.2441476037614705E-02  -2.7503954616713178E-01  -9.5833934913865337E-01   1.0717463207822997E-04   2.9613068650524493E-04  -3.9938709807559305E-03   2.3485645542647926E-02
       0.400080  -1.3460015429564643E-02  -1.3281366978903151E-02  -6.0242807131888532E-01  -7.9395279141269004E-01   2.3478569713354932E-04   2.6833869383833527E-04   1.3804176862900317E-02   2.1266133288947386E-02
       0.410082  -1.4253743342561949E-02  -1.4146859558660168E-02  -8.4819227092855154E-01  -5.2249318182312099E-01   3.5652046315700996E-04   1.8579728025932448E-04   2.6082494036287936E-02   6.6850705637825740E-03
       0.420084  -1.5064441370491156E-02  -1.5037033574929234E-02  -9.7920367311371426E-01  -1.8073261754880787E-01   4.4885496323564998E-04   4.9042263994730884E-05   2.5136378501202247E-02  -1.3510155150105667E-02
       0.430086  -1.5891111258138076E-02  -1.5950889099020649E-02  -9.7787752613532630E-01   1.8508942617588145E-01   4.8786151632781180E-04  -1.3123149906696239E-04   9.8843877945937429E-03  -2.8521817674859864E-02
       0.440088  -1.6732723219737379E-02  -1.6887349400371263E-02  -8.4453566795512658E-01   5.2552990847879988E-01   4.5362752288497811E-04  -3.3380660002799818E-04  -1.2714166367145105E-02  -2.9224638358290179E-02
       0.450090  -1.7588219956289057E-02  -1.7845264223328258E-02  -5.9734322650563620E-01   7.9463321741580761E-01   3.3487980054508606E-04  -5.2851710961235722E-04  -3.0716206831311585E-02  -1.3590287273077347E-02
       0.460092  -1.8456520797797117E-02  -1.8823413407473656E-02  -2.6983023017699326E-01   9.5614250761443786E-01   1.3295806145557324E-04  -6.7985629354355064E-04  -3.3461924506393362E-02   1.1359480301116344E-02
       0.470094  -1.9336525957790448E-02  -1.9820510839987603E-02   9.3663331113119697E-02   9.8839050331762812E-01  -1.3575770692856776E-04  -7.5233288842399624E-04  -1.7786761554510325E-02   3.2575877054647748E-02
       0.480096  -2.0227120885214490E-02  -2.0835208725432090E-02   4.4399926912366822E-01   8.8720893123400457E-01  -4.3972932680641405E-04  -7.1689656922872206E-04   9.3990398105245863E-03   3.7767943139036773E-02
       0.490098  -2.1127180696552793E-02  -2.1866102155272238E-02   7.3389332850492150E-01   6.6646529398576138E-01  -7.3491000695725831E-04  -5.5742273239966838E-04   3.4011151247007820E-02   2.2442714300772645E-02
       0.500100  -2.2035574668899174E-02  -2.2911733956489006E-02   9.2430560142385332E-01   3.5615800437647172E-01  -9.7017239739644794E-04  -2.7605608096887088E-04   4.2052619711416696E-02  -6.7975487902634897E-03
       0.510102  -2.2951170772701000E-02  -2.3970599795826605E-02   9.8970410917847806E-01  -1.6679134627530794E-03  -1.0950023909458843E-03   1.0377827424597969E-04   2.7511788076477899E-02  -3.4935066609863279E-02
       0.520104  -2.3872840221086818E-02  -2.5041153513599843E-02   9.2149078395841866E-01  -3.5862732597914765E-01  -1.0684355553975812E-03   5.3764893304435982E-04  -3.5332958614951535E-03  -4.6218006703316362E-02
       0.530106  -2.4799462011118011E-02  -2.6121812658611337E-02   7.2912962344871057E-01  -6.6654764640498765E-01  -8.6781659058616102E-04   9.6417366087728467E-04  -3.5266023332102742E-02  -3.2932659004527444E-02
       0.540108  -2.5729927431014408E-02  -2.7210964193628381E-02   4.3882926925043014E-01  -8.8397857597130070E-01  -4.9577229349487099E-04   1.3127329202399520E-03  -5.0160523949842273E-02  -4.0035669702098025E-04
       0.550110  -2.6663144506435209E-02  -2.8306970339079786E-02   8.9964064325263521E-02  -9.8177776244703252E-01   1.6129245017568552E-05   1.5140304507024801E-03  -3.8629804061334740E-02   3.4930387826068408E-02
       0.560112  -2.7598042358283278E-02  -2.9408174521182613E-02  -2.7027636673530059E-01  -9.4701865602927271E-01   6.0818388647669868E-04   1.5120538121187667E-03  -4.9938790158916774E-03   5.3773467375503016E-02
       0.570114  -2.8533575444269821E-02  -3.0512907389616817E-02  -5.9328030338625337E-01  -7.8469619047963612E-01   1.1983317133772932E-03   1.2755293163635823E-03   3.3864962681166323E-02   4.4514729596116451E-02
       0.580116  -2.9468727656645707E-02  -3.1619492869150424E-02  -8.3558204211081699E-01  -5.1700570411305058E-01   1.6926037803364439E-03   8.0679304728669581E-04   5.6949710607622980E-02   1.0220921895275112E-02
       0.590118  -3.0402516249082759E-02  -3.2726254209286855E-02  -9.6471607997517739E-01  -1.8029979959329345E-01   1.9990569711171940E-03   1.4618057491796701E-04   5.0487632560021672E-02  -3.2019238526026464E-02
       0.600120  -3.1333995566672448E-02  -3.3831519996062827E-02  -9.6356804150700093E-01   1.7985818211214977E-01   2.0432509325889491E-03  -6.2941736683526253E-04   1.6038139217165907E-02  -5.9584515528521668E-02
       0.610122  -3.2262260554387516E-02  -3.4933630090568220E-02  -8.3263913840887127E-01   5.1486927909311131E-01   1.7828071226976393E-03  -1.4143334432602283E-03  -2.9357349554786992E-02  -5.6439449787821450E-02
       0.620124  -3.3186450021101911E-02  -3.6030941459579781E-02  -5.8992526984457738E-01   7.7966406859405513E-01   1.2184515815791335E-03  -2.0876948930740463E-03  -6.1578362774480713E-02  -2.2385499790078242E-02
       0.630126  -3.4105749638353229E-02  -3.7121833864885309E-02  -2.6843551152750272E-01   9.3876973976515543E-01   3.9924654148650317E-04  -2.5311803035210491E-03  -6.2254236266340517E-02   2.5859664242167135E-02
       0.640128  -3.5019394655417979E-02  -3.8204715379407471E-02   8.8306325763355231E-02   9.7106174512595766E-01  -5.7954524829926916E-04  -2.6484532623711797E-03  -2.9187086597326210E-02   6.2839711700575410E-02
       0.650130  -3.5926672314903846E-02  -3.9278027700095877E-02   4.3216233146614830E-01   8.7256371464400517E-01  -1.5864312288990201E-03  -2.3832026619041062E-03   2.1523955229968431E-02   6.7811801285104403E-02
       0.660132  -3.6826923955890392E-02  -4.0340251229709356E-02   7.1688185492639933E-01   6.5692551284824729E-01  -2.4706809528421783E-03  -1.7326309790033907E-03   6.3287601381346231E-02   3.6352364277387736E-02
       0.670134  -3.7719546794609038E-02  -4.1389909902046003E-02   9.0432453182089012E-01   3.5352425404217508E-01  -3.0842560264407346E-03  -7.5367768091042604E-04   7.2990522150242515E-02  -1.6366106889206578E-02
       0.680136  -3.8603995375684846E-02  -4.2425575727844236E-02   9.6956737888791567E-01   3.4539395991480637E-03  -3.3055594765907330E-03   4.3978258399143491E-04   4.3777879405042880E-02  -6.2854009601195984E-02
       0.690138  -3.9479782690003448E-02  -4.3445873041454960E-02   9.0421260926678837E-01  -3.4604721874746469E-01  -3.0612845316766099E-03   1.6891871013233067E-03  -1.0420334983857192E-02  -7.7670249022035995E-02
       0.700140  -4.0346480958259580E-02  -4.4449482431431472E-02   7.1745840691664653E-01  -6.4797480545999742E-01  -2.3426164584938671E-03   2.8118662229523481E-03  -6.1485895170582616E-02  -5.1349343362162174E-02
       0.710142  -4.1203722082130072E-02  -4.5435144341358320E-02   4.3479817433296020E-01  -8.6187970848469431E-01  -1.2126425039035045E-03   3.6273704079333355E-03  -8.1735211520928816E-02   3.7389095418003089E-03
       0.720144  -4.2051197767748502E-02  -4.6401662330512509E-02   9.4533531359159734E-02  -9.5928304052778579E-01   1.9699739280636258E-04   3.9857882231680367E-03  -5.8944034758346850E-02   5.9146859882429730E-02
       0.730146  -4.2888659328698446E-02  -4.7347905987263135E-02  -2.5742054868829678E-01  -9.2746043101823150E-01   1.7005869301912587E-03   3.7936648596224964E-03  -3.6086111125170541E-03   8.5076838035381297E-02
       0.740148  -4.3715917178051837E-02  -4.8272813491443828E-02  -5.7373288349191442E-01  -7.7109433689974438E-01   3.0825206623639224E-03   3.0331731905981004E-03   5.5818379574756785E-02   6.6433447852843691E-02
       0.750150  -4.4532840021036191E-02  -4.9175393825213659E-02  -8.1201876242199877E-01  -5.1158183722922335E-01   4.1281027585044813E-03   1.7709514911402025E-03   8.7596402092568401E-02   1.1536610726128755E-02
       0.760152  -4.5339353761704573E-02  -5.0054728635130864E-02  -9.4051330134752809E-01  -1.8410113170000067E-01   4.6565627207461741E-03   1.5442652242556392E-04   7.3686105546812819E-02  -5.1500568664777105E-02
       0.770154  -4.6135440138496818E-02  -5.0909973751238180E-02  -9.4229726113032442E-01   1.6715986563996074E-01   4.5512264972304402E-03  -1.6047022591560091E-03   1.9945069841152487E-02  -8.9207416620365465E-02
       0.780156  -4.6921135104823215E-02  -5.1740360371867147E-02  -8.1751487273875267E-01   4.9496499032642072E-01   3.7818926679075429E-03  -3.2581093766970715E-03  -4.6212458723444844E-02  -8.0570450540283112E-02
       0.790158  -4.7696526971782172E-02  -5.2545195925565412E-02  -5.8329496209592269E-01   7.5537714956374846E-01   2.4153821260051406E-03  -4.5560281734392813E-03  -8.9837706301582720E-02  -2.8721590621483339E-02
       0.800160  -4.8461754330855283E-02  -5.3323864623996790E-02  -2.7139560518357997E-01   9.1363943267486658E-01   6.1185318144630599E-04  -5.2849602316828535E-03  -8.6957726450373182E-02   3.9991788665974443E-02
       0.810162  -4.9217003774928658E-02  -5.4075827721823261E-02   7.6102853115212671E-02   9.4880429685717160E-01  -1.3934220728972170E-03  -5.3021956582959976E-03  -3.7743725293174657E-02   8.9431100292224702E-02
       0.820164  -4.9962507436290042E-02  -5.4800623501421335E-02   4.1247197414087916E-01   8.5649616022358221E-01  -3.3208545481717136E-03  -4.5616030232674557E-03   3.2894321335486899E-02   9.2724762299873489E-02
       0.830166  -5.0698540360375827E-02  -5.5497867001785092E-02   6.9261192680461958E-01   6.4944503449983426E-01  -4.8858639366562446E-03  -3.1262097709509541E-03   8.7948702005459081E-02   4.6881532055868154E-02
       0.840168  -5.1425417734012893E-02  -5.6167249512107262E-02   8.7908879673238216E-01   3.5572828094199288E-01  -5.8411444507146396E-03  -1.1649187390275614E-03   9.7756578942937142E-02  -2.4992717911480590E-02
       0.850170  -5.2143491986748086E-02  -5.6808537851294735E-02   9.4712604685623447E-01   1.4964009367843254E-02  -6.0155417857829692E-03   1.0669616377404197E-03   5.6000275862322542E-02  -8.5369708919065299E-02
       0.860172  -5.2853149783604329E-02  -5.7421573455062158E-02   8.8788653784509786E-01  -3.2702779015491545E-01  -5.3434313313167302E-03   3.2612047951249921E-03  -1.6375016819261859E-02  -1.0194874464796949E-01
       0.870174  -5.3554808927272289E-02  -5.8006271292259173E-02   7.0961223220112268E-01  -6.2437770574414764E-01  -3.8796708140496090E-03   5.0997397242899091E-03  -8.1691772686118103E-02  -6.4963188710204275E-02
       0.880176  -5.4248915187360247E-02  -5.8562618631738145E-02   4.3647616068798062E-01  -8.3730829284988328E-01  -1.7972005068009347E-03   6.3012105135148520E-03  -1.0520941889121876E-01   7.1427767348124878E-03
       0.890178  -5.4935939073899501E-02  -5.9090673680372574E-02   1.0530694306953255E-01  -9.3744402205372612E-01   6.3310166874125547E-04   6.6641308587895298E-03  -7.3634205349996470E-02   7.6930907247466249E-02
       0.900180  -5.5616372571855276E-02  -5.9590564111825180E-02  -2.3937058986295245E-01  -9.1158294044332677E-01   3.0780109016910724E-03   6.0999858031095802E-03  -2.5910469806433301E-03   1.0746103780004784E-01
