#        t [ns]             Re[<00|Psi>]             Im[<00|Psi>]             Re[<01|Psi>]             Im[<01|Psi>]             Re[<10|Psi>]             Im[<10|Psi>]             Re[<11|Psi>]             Im[<11|Psi>]
       0.000000   0.0000000000000000E+00   0.0000000000000000E+00   5.5511151231256798E-17   0.0000000000000000E+00   1.0000000000000000E+00   0.0000000000000000E+00   9.5387777394609158E-17   0.0000000000000000E+00
       0.010002  -2.6168347103497975E-07  -1.8592472060974308E-07  -6.4812215289089470E-08   2.5348114870981854E-08   9.3015675816523868E-01  -3.6716142756769826E-01   3.9904200716173076E-08  -1.9261053833403824E-07
       0.020004  -2.5960541831430494E-06  -1.8454819735016740E-06  -1.0226159098680931E-07   9.4433813532798501E-08   7.3038408079695805E-01  -6.8303536631312700E-01  -1.0155686248970129E-06  -1.6667049210114195E-06
       0.030006  -9.0219200422814712E-06  -6.4158818370205295E-06  -9.1307568700361537E-08   1.8788761249610380E-07   4.2858744817651151E-01  -9.0349882283179350E-01  -6.5327086704995585E-06  -1.8277873801598729E-06
       0.040008  -2.1500445520931004E-05  -1.5294080814546010E-05  -2.2172703976709619E-08   2.7818681216930379E-07   6.6923593480967380E-02  -9.9775630980620766E-01  -1.4357359590618807E-05   7.4335460651805508E-06
       0.050010  -4.1933668205760004E-05  -2.9834494420218165E-05   1.0137899963955974E-07   3.3565893789449997E-07  -3.0408819229743084E-01  -9.5264151873174463E-01  -1.0592903546555075E-05   2.9702032214441829E-05
       0.060012  -7.2163023731014556E-05  -5.1346777855148659E-05   2.6296584733358122E-07   3.3449566229369006E-07  -6.3262287456212030E-01  -7.7445645349809178E-01   2.1523761653953344E-05   4.9817630479825907E-05
       0.070014  -1.1396788451347401E-04  -8.1093677860353275E-05   4.3701814200783968E-07   2.5693416574885111E-07  -8.7278887885081924E-01  -4.8809113294956646E-01   7.8513354238726960E-05   3.4369265220360867E-05
       0.080016  -1.6906411721157762E-04  -1.2028895855648160E-04   5.9284835929340443E-07   9.4584524285626038E-08  -9.9103848484646984E-01  -1.3354683012937474E-01   1.1995606823772755E-04  -4.2119299498907643E-05
       0.090018  -2.3910266327924353E-04  -1.7009540378740449E-04   6.9708526612159241E-07  -1.5251908824122714E-07  -9.7085398656816824E-01   2.3965150735684804E-01   8.3483093333088301E-05  -1.5923616924803173E-04
       0.100020  -3.2566814640794012E-04  -2.3162289820158739E-04   7.1304613105658883E-07  -4.7682668252767373E-07  -8.1505503820067970E-01   5.7937317391627707E-01  -6.4680225180312965E-05  -2.3616650911260396E-04
       0.110022  -4.3027751008161520E-04  -3.0592658905562105E-04   5.9773449731463822E-07  -8.6088195827590656E-07  -5.4540487372663005E-01   8.3816365675370985E-01  -2.7520907860998387E-04  -1.6999449481183351E-04
       0.120024  -5.5437868793844320E-04  -3.9400513052946691E-04   2.9987077813509494E-07  -1.2690949743042185E-06  -1.9957037331218752E-01   9.7987346334389458E-01  -4.0867237924526167E-04   8.1470477213099296E-05
       0.130026  -6.9934930916940757E-04  -4.9679901222017260E-04  -2.3552051423762971E-07  -1.6338798094198495E-06   1.7413944225035363E-01   9.8470787882720745E-01  -3.0708223830307668E-04   4.2655256864330363E-04
       0.140028  -8.6649544081133546E-04  -6.1518897344396597E-04  -1.0503206866461616E-06  -1.8406413765924963E-06   5.2352159366970641E-01   8.5199224378664329E-01   8.1843365755750498E-05   6.4591042521351802E-04
       0.150030  -1.0570503685329901E-03  -7.4999450503543505E-04  -2.1415706846760940E-06  -1.7205403163014114E-06   7.9977142341182073E-01   6.0026640946006538E-01   6.0999012375417285E-04   5.0838790062377685E-04
       0.160032  -1.2721734173847120E-03  -9.0197244049297046E-04  -3.4180201329263888E-06  -1.0625691484538044E-06   9.6430034991337354E-01   2.6469506902123080E-01   9.5397049931809507E-04  -5.2628497156644782E-05
       0.170034  -1.5129488139988777E-03  -1.0718156385828991E-03  -4.6561599136560297E-06   3.4478557127596120E-07   9.9412669065003001E-01  -1.0784441161765132E-01   7.8733668936594749E-04  -8.1878306529528536E-04
       0.180036  -1.7803845918987898E-03  -1.2601517598786860E-03  -5.4743744834912473E-06   2.6383994099602401E-06   8.8508639788509347E-01  -4.6531058998396291E-01   2.1389492621842435E-05  -1.3361067897238990E-03
       0.190038  -2.0754115419023321E-03  -1.4675421401690639E-03  -5.3476428826546503E-06   5.7792552697174116E-06   6.5241502017063002E-01  -7.5776823773008395E-01  -1.0427818777361182E-03  -1.1564529124556398E-03
       0.200040  -2.3988822100933934E-03  -1.6944807642094459E-03  -3.6823483961395251E-06   9.4464733574327211E-06   3.2861938739007313E-01  -9.4436467416695280E-01  -1.7923343599045456E-03  -1.5691223190260106E-04
       0.210042  -2.7515699464733274E-03  -1.9413933439002267E-03   4.0517436570516207E-08   1.2960914909906588E-05  -4.1063852935176573E-02  -9.9903743098964981E-01  -1.6266883875689837E-03   1.2685941263028927E-03
       0.220044  -3.1341680081868016E-03  -2.2086365056355837E-03   6.0646412935178718E-06   1.5279518478965399E-05  -4.0498852683445880E-01  -9.1415565042874625E-01  -3.7150276471907220E-04   2.3191230943126586E-03
       0.230046  -3.5472887221264051E-03  -2.4964970922566562E-03   1.4134825057940503E-05   1.5097773993004169E-05  -7.1231508613790262E-01  -7.0158620380691727E-01   1.4798664127452447E-03   2.2067820880200930E-03
       0.240048  -3.9914627127392516E-03  -2.8051915857401134E-03   2.3307744215084001E-05   1.1080605814562817E-05  -9.2011432144082572E-01  -3.9103529298657591E-01   2.9091991665307956E-03   6.8291016052570070E-04
       0.250050  -4.4671382019630113E-03  -3.1348656574321692E-03   3.1868051019989381E-05   2.2119033556329030E-06  -9.9936586715912024E-01  -2.5897022343927285E-02   2.9026690231950293E-03  -1.6576751695167615E-03
       0.260052  -4.9746803893813488E-03  -3.4855938532723733E-03   3.7418904669352404E-05  -1.1785485030376871E-05  -9.3901301190896924E-01   3.4281108864230997E-01   1.1083607326904581E-03  -3.5514619623165655E-03
       0.270054  -5.5143709218787671E-03  -3.8573794220142428E-03   3.7193563041572907E-05  -3.0045947235608437E-05  -7.4750685645673631E-01   6.6357815880175175E-01  -1.7810184587737602E-03  -3.7169557511101911E-03
       0.280056  -6.0864074632596722E-03  -4.2501542949134408E-03   2.8591436322860269E-05  -5.0287812152566120E-05  -4.5162373657876637E-01   8.9159893896080289E-01  -4.2310219964039816E-03  -1.6638343386969773E-03
       0.290058  -6.6909033754398110E-03  -4.6637792256932617E-03   9.8833954003279071E-06  -6.8790770815143129E-05  -9.2721032542716089E-02   9.9503528631149007E-01  -4.6484789991324367E-03   1.8273983224071180E-03
       0.300060  -7.3278875238843213E-03  -5.0980440997862361E-03  -1.9031746500950855E-05  -8.0720173287908884E-05   2.7904527092038511E-01   9.5946457054415868E-01  -2.3633453061096647E-03   4.9293627419585342E-03
       0.310062  -7.9973042209168840E-03  -5.5526684218680893E-03  -5.5989535348545661E-05  -8.0837956222396890E-05   6.1173274980776493E-01   7.8989288172244987E-01   1.7734806346218646E-03   5.6919625886135911E-03
       0.320064  -8.6990133213227620E-03  -6.0273019905263958E-03  -9.6235347984672141E-05  -6.4556548636776997E-05   8.5887376246204006E-01   5.1005144850638784E-01   5.6246264280338989E-03   3.2182483013262764E-03
       0.330066  -9.4327904852774137E-03  -6.5215257685260512E-03  -1.3259073748518753E-04  -2.9195312940270483E-05   9.8597008154071597E-01   1.5907472583703605E-01   6.8377861692219336E-03  -1.5958168718523018E-03
       0.340068  -1.0198327624018998E-02  -7.0348529565355108E-03  -1.5622377191567432E-04   2.4790723223736447E-05   9.7531244942876150E-01  -2.1397500374845638E-01   4.2365898621497663E-03  -6.2920207474035303E-03
       0.350070  -1.0995233543814684E-02  -7.5667302773562714E-03  -1.5802735545273133E-04   9.2899306026127961E-05   8.2845093579198947E-01  -5.5697025834460501E-01  -1.2716097969422539E-03  -8.0718771145088745E-03
       0.360072  -1.1823034803620737E-02  -8.1165394766520120E-03  -1.3047076526451147E-04   1.6628290222649682E-04   5.6597078674201906E-01  -8.2200776419977950E-01  -6.9043400724615256E-03  -5.4225262593590442E-03
       0.370074  -1.2681176801381366E-02  -8.6835990449081416E-03  -6.9646651971076820E-05   2.3230074264838095E-04   2.2460568922467566E-01  -9.7210447321876570E-01  -9.3757342663360072E-03   7.7950284857828235E-04
       0.380076  -1.3569025103134010E-02  -9.2671661638784025E-03   2.2879421862585882E-05   2.7602934066049743E-04  -1.4790681282058413E-01  -9.8636320081113504E-01  -6.7758277346897282E-03   7.4325912525120674E-03
       0.390078  -1.4485867027977663E-02  -9.8664388791086400E-03   1.3886463966220248E-04   2.8265677158260092E-04  -4.9950688399790694E-01  -8.6288536350120826E-01   1.0037115668728038E-04   1.0726589020504192E-02
       0.400080  -1.5430913500512258E-02  -1.0480558498291256E-02   2.6324631545714274E-04   2.4047696803008970E-04  -7.8109497436414199E-01  -6.1902401878206847E-01   7.8467104552365739E-03   8.2914878831150413E-03
       0.410082  -1.6403301180573256E-02  -1.1108612213224282E-02   3.7534875817370975E-04   1.4400601119109830E-04  -9.5339554984804442E-01  -2.8894312433229313E-01   1.2097705535369081E-02   7.8190928292866618E-04
       0.420084  -1.7402094877978284E-02  -1.1749635941058456E-02   4.5150881214641163E-04  -3.3916098351794190E-06  -9.9244122951173530E-01   8.1173644554620908E-02   9.9594549248618360E-03  -8.1163539555359626E-03
       0.430086  -1.8426290257590367E-02  -1.2402617378349606E-02   4.6890991154265174E-04  -1.8801144089776117E-04  -8.9291039661183369E-01   4.3959201609433612E-01   1.8797384884186813E-03  -1.3458817684705167E-02
       0.440088  -1.9474816837312316E-02  -1.3066499259230801E-02   4.1012191258021653E-04  -3.8600128919973661E-04  -6.6885264396809663E-01   7.3626696871864439E-01  -8.2117424425104980E-03  -1.1764498802119949E-02
       0.450090  -2.0546541278694652E-02  -1.3740182806819323E-02   2.6759728186587987E-04  -5.6555817700740588E-04  -3.5170285797809747E-01   9.2983876288888179E-01  -1.4776695886567538E-02  -3.2011395958912361E-03
       0.460092  -2.1640270966706503E-02  -1.4422531364819425E-02   4.7233292800974933E-05  -6.9111326066232900E-04   1.4135145756517453E-02   9.9340569098138631E-01  -1.3686224443830938E-02   8.1045355140705773E-03
       0.470094  -2.2754757871937020E-02  -1.5112374194212576E-02  -2.2987725025196024E-04  -7.2909057049308306E-04   3.7751414355013668E-01   9.1826654436456157E-01  -4.7491993993766879E-03   1.6015832297678185E-02
       0.480096  -2.3888702685115972E-02  -1.5808510417984069E-02  -5.2819338619504116E-04  -6.5443898238103169E-04   6.8770402529859143E-01   7.1511132579079262E-01   7.7687107727320960E-03   1.5699237239852438E-02
       0.490098  -2.5040759210431817E-02  -1.6509713095051320E-02  -8.0129766119238033E-04  -4.5684117254490722E-04   9.0148325313255062E-01   4.1249710743800361E-01   1.7139228291249982E-02   6.5216235914196171E-03
       0.500100  -2.6209539000742438E-02  -1.7214733402971558E-02  -9.9813246045054845E-04  -1.4537243057456122E-04   9.8916835658135049E-01   5.2826715877116771E-02   1.7773461892311389E-02  -7.1814205275573632E-03
       0.510102  -2.7393616214488329E-02  -1.7922304907639942E-02  -1.0712064140542986E-03   2.4953173589284427E-04   9.3873904017628951E-01  -3.1360241845468195E-01   8.5104250226387089E-03  -1.8109263889322585E-02
       0.520104  -2.8591532670994430E-02  -1.8631147897067015E-02  -9.8558951314367755E-04   6.7762065877378355E-04   7.5748490920305833E-01  -6.3564246056711271E-01  -6.3237987116272496E-03  -1.9874610571053872E-02
       0.530106  -2.9801803077951251E-02  -1.9339973755463754E-02  -7.2717887245158611E-04   1.0741816913460984E-03   4.7094827636201375E-01  -8.6844410779056880E-01  -1.8888625160854617E-02  -1.0701759419028505E-02
       0.540108  -3.1022920402259145E-02  -2.0047489353272736E-02  -3.0861713400961885E-04   1.3688360473173705E-03   1.1931687789514719E-01  -9.7970940549145114E-01  -2.1964790947656711E-02   5.1816913484970858E-03
       0.550110  -3.2253361353159773E-02  -2.0752401428470374E-02   2.2856526895859413E-04   1.4967233308184422E-03  -2.4822276182934155E-01  -9.5417546330866421E-01  -1.3075918327330642E-02   1.9441262767525107E-02
       0.560112  -3.3491591944713101E-02  -2.1453420934425649E-02   8.1653085708274591E-04   1.4104315112958140E-03  -5.8037619984885735E-01  -7.9570609040614515E-01   3.7462857751065460E-03   2.4003239504861884E-02
       0.570114  -3.4736073103250151E-02  -2.2149267329828064E-02   1.3686631598019100E-03   1.0906629797142688E-03  -8.3090895274879817E-01  -5.2670503974548166E-01   1.9733353038325994E-02   1.5607483815961538E-02
       0.580116  -3.5985266284469554E-02  -2.2838672786681103E-02   1.7914072902834753E-03   5.5358121384159258E-04  -9.6508814960391454E-01  -1.8494037067722610E-01   2.5947160805035691E-02  -2.0146167978875688E-03
       0.590118  -3.7237639064372142E-02  -2.3520386293080772E-02   1.9989349137261294E-03  -1.4689541969276413E-04  -9.6449943204505806E-01   1.8176846973721567E-01   1.8265643908307202E-02  -1.9734232310927555E-02
       0.600120  -3.8491670668247734E-02  -2.4193177628444931E-02   1.9284555154290921E-03  -9.2291129026906399E-04  -8.2957081365247365E-01   5.2225164106326261E-01   1.0068113918785142E-05  -2.7752649415441068E-02
       0.610122  -3.9745857402440105E-02  -2.4855841190007978E-02   1.5536141393444924E-03  -1.6627157262445646E-03  -5.7945822432859395E-01   7.8913715575396171E-01  -1.9417275838727883E-02  -2.1014662159120390E-02
       0.620124  -4.0998717954602734E-02  -2.5507199650726238E-02   8.9344591155998319E-04  -2.2459683098136878E-03  -2.4931759907879017E-01   9.4544636641059743E-01  -2.9375668139676275E-02  -2.3180978145870444E-03
       0.630126  -4.2248798529592589E-02  -2.6146107430234048E-02   1.4838712220116145E-05  -2.5623212674467820E-03   1.1464643994926779E-01   9.6971766412325744E-01  -2.3814489491608404E-02   1.8760694287308463E-02
       0.640128  -4.3494677789995009E-02  -2.6771453962126702E-02  -9.7265173601335340E-04  -2.5305072346624565E-03   4.6165613934825511E-01   8.5894854382610575E-01  -4.8933286854026857E-03   3.0773054231069488E-02
       0.650130  -4.4734971572483559E-02  -2.7382166742610514E-02  -1.9296025669884053E-03  -2.1147772415235906E-03   7.4345119751551625E-01   6.2895370523445482E-01   1.7748223615076605E-02   2.6621501648028643E-02
       0.660132  -4.5968337353742179E-02  -2.7977214147432674E-02  -2.7058073701426680E-03  -1.3356593446916707E-03   9.2100310111882444E-01   3.1209920018794757E-01   3.1903524422091899E-02   7.7132606817781248E-03
       0.670134  -4.7193478442455528E-02  -2.8555608005975591E-02  -3.1631127558134175E-03  -2.7266847073382909E-04   9.6991868086611888E-01  -4.7261124724710300E-02   2.9389341570651834E-02  -1.6369687774723193E-02
       0.680136  -4.8409147876847074E-02  -2.9116405923448174E-02  -3.1986029859462015E-03   9.4227421412485944E-04   8.8378523845850498E-01  -3.9900169355456444E-01   1.0749315464108658E-02  -3.2728649875007579E-02
       0.690138  -4.9614152010353581E-02  -2.9658713344238741E-02  -2.7643543851793091E-03   2.1405135918209145E-03   6.7499983201589708E-01  -6.9422119016421724E-01  -1.4621417977545959E-02  -3.2069842857078555E-02
       0.700140  -5.0807353771208402E-02  -3.0181685351675952E-02  -1.8802155620649794E-03   3.1396944696810303E-03   3.7297782674583974E-01  -8.9204126901520719E-01  -3.3213773463861243E-02  -1.3967268712849003E-02
       0.710142  -5.1987675584911720E-02  -3.0684528201680269E-02  -6.3692006893985753E-04   3.7710598434889980E-03   2.0001126054782666E-02  -9.6526281711598316E-01  -3.4614008193691287E-02   1.2506517019312671E-02
       0.720144  -5.3154101951741126E-02  -3.1166500590058946E-02   8.1179232090653158E-04   3.9069586381970580E-03  -3.3470635952620137E-01  -9.0409801782695731E-01  -1.7327824010694912E-02   3.3328844019783248E-02
       0.730146  -5.4305681674556731E-02  -3.1626914655487504E-02   2.2676744565332803E-03   3.4841520527895018E-03  -6.4184477261289441E-01  -7.1746775381516925E-01   1.0034962177465009E-02   3.6973015381090803E-02
       0.740148  -5.5441529735144227E-02  -3.2065136722511683E-02   3.5149610505386861E-03   2.5188559329317566E-03  -8.5888783664548018E-01  -4.3169466613531421E-01   3.3049145179168821E-02   2.0787311508619299E-02
       0.750150  -5.6560828820190409E-02  -3.2480587791171307E-02   4.3521866858144210E-03   1.1104986770531678E-03  -9.5596471720142973E-01  -8.6784691151187809E-02   3.9099223210574074E-02  -7.2235452840445566E-03
       0.760152  -5.7662830500661962E-02  -3.2872743782069481E-02   4.6241352233021031E-03  -5.6721827873489549E-04  -9.1996198834043064E-01   2.6917632686466098E-01   2.4298491072791976E-02  -3.2355900138596037E-02
       0.770154  -5.8746856070866632E-02  -3.3241135547852935E-02   4.2488859235094677E-03  -2.2874282582283326E-03  -7.5628428376199719E-01   5.8672541953569413E-01  -4.0956536090919352E-03  -4.0947150002229017E-02
       0.780156  -5.9812297055778854E-02  -3.3585348664099686E-02   3.2353796560605041E-03  -3.8008694527886899E-03  -4.8803948379524981E-01   8.2189048746656113E-01  -3.1236737820608752E-02  -2.7811436813638762E-02
       0.790158  -6.0858615397323193E-02  -3.3905023014494010E-02   1.6881520701281325E-03  -4.8721214771863391E-03  -1.5277224438314430E-01   9.4227084154323648E-01  -4.2474399042366259E-02   6.8090001866302579E-04
       0.800160  -6.1885343332215563E-02  -3.4199852186868225E-02  -2.0228840061202658E-04  -5.3160002701824150E-03   2.0279139374549623E-01   9.3149111680448105E-01  -3.1274477901995092E-02   2.9686010571705588E-02
       0.810162  -6.2892082975667521E-02  -3.4469582698166239E-02  -2.1827867332699820E-03  -5.0284785225571749E-03   5.2925240961473918E-01   7.9141835944187755E-01  -2.9853846423291705E-03   4.3642507428351004E-02
       0.820164  -6.3878505626763935E-02  -3.4714013067606415E-02  -3.9717390769518027E-03  -4.0070524490095566E-03   7.8139426226702613E-01   5.4184425565062988E-01   2.7704958415326889E-02   3.4635169460409641E-02
       0.830166  -6.4844350812630569E-02  -3.4932992758244893E-02  -5.2994886074775932E-03  -2.3568596936671487E-03   9.2443540162315230E-01   2.1768627154931433E-01   4.4417697895752652E-02   6.8627800098336892E-03
       0.840168  -6.5789425089618533E-02  -3.5126421007755960E-02  -5.9490546472560140E-03  -2.8088323849963790E-04   9.3881616536600920E-01  -1.3589583700098340E-01   3.7841267157471520E-02  -2.5301719904290539E-02
       0.850170  -6.6713600620647767E-02  -3.5294245569512397E-02  -5.7910044948858456E-03   1.9450429092886332E-03   8.2286338836921658E-01  -4.6978529649829004E-01   1.0906505270960151E-02  -4.4771516984506730E-02
       0.860172  -6.7616813548573823E-02  -3.5436461384965708E-02  -4.8069028479109065E-03   4.0093409017411853E-03   5.9297170979662228E-01  -7.3772159846742424E-01  -2.2491194552683724E-02  -4.0841679984116697E-02
       0.870174  -6.8499062185971127E-02  -3.5553109207878721E-02  -3.0972874006953673E-03   5.6088382602821844E-03   2.8128474422770838E-01  -9.0269838611322240E-01  -4.4681347259882064E-02  -1.5068226180552358E-02
       0.880176  -6.9360405042062936E-02  -3.5644274200161211E-02  -8.7231561879009374E-04   6.4936107223451302E-03  -6.8795602707536721E-02  -9.4206321260985415E-01  -4.3587377556972479E-02   1.9294766431092607E-02
       0.890178  -7.0200958707673192E-02  -3.5710084517908948E-02   1.5742123725430513E-03   6.5058228248834936E-03  -4.0864482360942461E-01  -8.5061850726496513E-01  -1.9296915954505087E-02   4.4130786034892101E-02
       0.900180  -7.1020895619029273E-02  -3.5750709904773227E-02   3.9042114445567008E-03   5.6065354140373775E-03  -6.9115849176415667E-01  -6.4130101697372932E-01   1.5739902516986811E-02   4.6032231101122173E-02
