#        t [ns]             Re[<00|Psi>]             Im[<00|Psi>]             Re[<01|Psi>]             Im[<01|Psi>]             Re[<10|Psi>]             Im[<10|Psi>]             Re[<11|Psi>]             Im[<11|Psi>]
       0.000000   0.0000000000000000E+00   0.0000000000000000E+00   1.0000000000000002E+00   0.0000000000000000E+00   5.5511151231256798E-17   0.0000000000000000E+00   2.5163331506687795E-16   0.0000000000000000E+00
       0.025013  -2.9413849423642776E-07   3.9990123444166744E-07   6.0227735095380819E-01  -7.9828550879441662E-01  -1.0372017876514322E-07   1.3974751318646122E-07   4.0299579383139183E-07  -5.2940835046362780E-07
       0.050025  -3.0120723909836686E-06   3.9235201084405540E-06  -2.7452174601395429E-01  -9.6157856286643739E-01   1.0080635558934516E-07   3.3315975458969625E-07  -6.2267257394687246E-06  -2.2758307327827880E-06
       0.075038  -1.0741158599267399E-05   1.3492067769192116E-05  -9.3295245985007036E-01  -3.5999025700313486E-01   4.9162228746291276E-07   1.7649522802281925E-07  -1.1850638468309226E-06   2.3084682077137942E-05
       0.100050  -2.6207602937097037E-05   3.1799373711868558E-05  -8.4927113048627167E-01   5.2794844347231584E-01   5.8066744591799765E-07  -3.8677643524054472E-07   5.3553143318664642E-05  -1.3528449073558442E-05
       0.125063  -5.2242681218824743E-05   6.1297538914678229E-05  -9.0043172194093662E-02   9.9593218128443339E-01   4.4663428627397805E-08  -8.7519253513800086E-07  -5.6052836232527456E-05  -9.2275544061546364E-05
       0.150075  -9.1748711089237924E-05   1.0418521794342655E-04   7.4080717236017801E-01   6.7170747755377813E-01  -8.1985189752384771E-07  -6.7630777980665609E-07  -1.2366118038756763E-04   1.3909283176714870E-04
       0.175088  -1.4766506808585263E-04   1.6239858096520461E-04   9.8238546082507772E-01  -1.8682136764207535E-01  -1.2282490265136568E-06   3.0312411838231106E-07   2.6765222116854073E-04   1.2236077540142421E-04
       0.200100  -2.2293453902458215E-04   2.3760498139344601E-04   4.4253150493026711E-01  -8.9674185279272778E-01  -5.7935958264897996E-07   1.3792439106375250E-06   5.7106729154720433E-05  -4.3314909160636970E-04
       0.225113  -3.2047030267873049E-04   3.3119932911447641E-04  -4.4932882184843109E-01  -8.9335292549423051E-01   9.0112327352794841E-07   1.5285148678573793E-06  -6.0952594976371025E-04   1.0237398224841313E-04
       0.250125  -4.4312382199630172E-04   4.4430314336677581E-04  -9.8376956482978040E-01  -1.7935334840472938E-01   2.1141849416151347E-06   2.3079528959830473E-07   3.7642591305892464E-04   7.5279641097434399E-04
       0.275138  -5.9365392395444960E-04   5.7776623379150673E-04  -7.3567541372980805E-01   6.7730651511488760E-01   1.7668766778831381E-06  -1.8918367306886254E-06   8.0492610327112448E-04  -7.6617980119594831E-04
       0.300150  -7.7469733277663066E-04   7.3217093335087942E-04   9.7602586603782501E-02   9.9520121256527772E-01  -5.6130567413141999E-07  -3.1562615248057040E-06  -1.2459324353016417E-03  -7.0215829282416144E-04
       0.325163  -9.8874090983063758E-04   9.0783878307885665E-04   8.5323290649986960E-01   5.2146962355405524E-01  -3.6010792798243397E-06  -1.8216536611938314E-06  -3.8699317419803585E-04   1.7591974931469813E-03
       0.350175  -1.2380958392567587E-03   1.1048395462916628E-03   9.3015649545345347E-01  -3.6705004325583140E-01  -4.6181651840451918E-06   2.2746860359603383E-06   2.2200351921347482E-03  -1.7782961905025394E-04
       0.375188  -1.5248739823830316E-03   1.3230024091882208E-03   2.6719938760738327E-01  -9.6358408148060082E-01  -1.2337437803395430E-06   6.5101334039701558E-06  -9.9565362265726493E-04  -2.5205204620198998E-03
       0.400200  -1.8509666063642905E-03   1.5619292058949900E-03  -6.0827537014666266E-01  -7.9363410179370764E-01   5.7676272643699097E-06   6.3341134402403004E-06  -2.5442105841099148E-03   2.0251624699108447E-03
       0.425213  -2.2180256732772809E-03   1.8210094890816421E-03  -9.9987493111521974E-01   7.5867168295756324E-03   1.1031614205597793E-05  -1.0397128623764086E-06   3.1750960226902092E-03   2.1843729955751527E-03
       0.450225  -2.6274478551225507E-03   2.0994372523599086E-03  -5.9613153096344007E-01   8.0272969284207696E-01   7.4748206559660081E-06  -1.2181689742512853E-05   1.3647093267036038E-03  -4.3063972980191675E-03
       0.475238  -3.0803614177816042E-03   2.3962290978124063E-03   2.8175579261034700E-01   9.5931545279009633E-01  -6.7415185064638477E-06  -1.7055173369722016E-05  -5.2428075700768602E-03  -5.9540804611463003E-05
       0.500250  -3.5776160929025568E-03   2.7102436311732961E-03   9.3545759008678542E-01   3.5284261696671032E-01  -2.2541794070156546E-05  -6.1717279601995537E-06   1.6899462905994821E-03   5.7896883392931859E-03
       0.525263  -4.1197760308706397E-03   3.0402018583803735E-03   8.4503119744100730E-01  -5.3421548799635399E-01  -2.3340376727772489E-05   1.8121776702641596E-05   5.7594963351838783E-03  -3.7666602162258213E-03
       0.550275  -4.7071159004204652E-03   3.3847083504126370E-03   8.2492475382619987E-02  -9.9625283448797808E-01   6.3365830881827303E-07   3.7038102649186338E-05  -5.9783674858876357E-03  -5.0010729997291802E-03
       0.575288  -5.3396201710503820E-03   3.7422729384948457E-03  -7.4553977756028500E-01  -6.6582921592554611E-01   3.7309714699426781E-05   2.6959979866250440E-05  -3.4289366246074825E-03   8.0697163730012733E-03
       0.600300  -6.0169855832731085E-03   4.1113326988967197E-03  -9.8045143207579255E-01   1.9410276942504101E-01   5.4121479383244437E-05  -1.6886653130903887E-05   9.7454838764998459E-03   1.0482584298350292E-03
       0.625313  -6.7386267790159890E-03   4.4902739856684257E-03  -4.3552491737276033E-01   8.9947093977835335E-01   2.3083151679790749E-05  -6.5258052364955800E-05  -2.0287182909327585E-03  -1.0703359999549562E-02
       0.650325  -7.5036850304091617E-03   4.8774542708209653E-03   4.5564234055454517E-01   8.8929868250921351E-01  -4.6518790222434760E-05  -6.9694711017154361E-05  -1.0673003611599285E-02   5.5783534382288225E-03
       0.675338  -8.3110399701258834E-03   5.2712235546906513E-03   9.8418090359890986E-01   1.7187889109949764E-01  -1.0045380494485946E-04  -5.3838739693195908E-06   9.2756355463938563E-03   9.4568292184341630E-03
       0.700350  -9.1593241908251039E-03   5.6699451146375885E-03   7.2985880026806249E-01  -6.8198987910619258E-01  -7.6772181650911181E-05   9.1983659532612623E-05   6.9672208527947130E-03  -1.2719086703778191E-02
       0.725363  -1.0046940545664556E-02   6.0720153678890075E-03  -1.0477637458509914E-01  -9.9319202821982389E-01   3.2760975120032929E-05   1.3776518505446229E-04  -1.5469110868682027E-02  -3.2547668961231762E-03
       0.750375  -1.0972081946966732E-02   6.4758826343396872E-03  -8.5573662950035867E-01  -5.1447082329842997E-01   1.5248936293406985E-04   6.5957782411970044E-05   1.4772657369365549E-03   1.7096398039516285E-02
       0.775388  -1.1932753426666800E-02   6.8800645975320004E-03  -9.2588259321136368E-01   3.7311429323050582E-01   1.6788907114297858E-04  -9.6341793515904194E-05   1.7235326362753052E-02  -6.8756778846322175E-03
       0.800400  -1.2926796190932446E-02   7.2831642768982924E-03  -2.5979059121020104E-01   9.6355493107668633E-01   2.6933364028976354E-05  -2.2239007499424130E-04  -1.2458872792988424E-02  -1.5636160171818781E-02
       0.825413  -1.3951913373112872E-02   7.6838843416552546E-03   6.1247293493447319E-01   7.8753435987743581E-01  -1.8638051492843666E-04  -1.7782238130042849E-04  -1.2209412786564957E-02   1.7656496194863612E-02
       0.850425  -1.5005697164717018E-02   8.0810396164369396E-03   9.9723332228608286E-01  -1.4507458398300534E-02  -2.9029962485230444E-04   4.9117425767623602E-05   2.1864160095748597E-02   7.0561325840946725E-03
       0.875438  -1.6085656984145501E-02   8.4735676507182809E-03   5.8891620874472972E-01  -8.0446293786444878E-01  -1.5258775760008703E-04   2.9774490112035272E-04   4.7908093735474596E-04  -2.4508098812379274E-02
       0.900450  -1.7189248328017128E-02   8.8605372481229926E-03  -2.8726622079421299E-01  -9.5430932267509960E-01   1.6653462204899413E-04   3.3943316381477781E-04  -2.5112969749396377E-02   7.0283040957911424E-03
       0.925463  -1.8313901940620970E-02   9.2411548775629421E-03  -9.3439564097769034E-01  -3.4543597360317918E-01   4.1777744193944509E-04   7.8133533240120630E-05   1.4815826194602279E-02   2.3365103498769520E-02
       0.950475  -1.9457052933616201E-02   9.6147689154865122E-03  -8.3824855764269535E-01   5.3749665958041870E-01   3.4945859775905924E-04  -3.2230047244668071E-04   1.9163480218135021E-02  -2.2131324345309414E-02
       0.975488  -2.0616169490752508E-02   9.9808716969199268E-03  -7.5928605246778330E-02   9.9241670193801523E-01  -5.5021597540818320E-05  -5.2633566774613438E-04  -2.8191740618767686E-02  -1.2651609437006486E-02
       1.000500  -2.1788780801068407E-02   1.0339099382014728E-02   7.4601049917412998E-01   6.5815647523428733E-01  -5.0401526076570733E-04  -2.9979084104856584E-04  -4.2252523800297747E-03   3.2263667334390185E-02
       1.025513  -2.2972503878541332E-02   1.0689229673971252E-02   9.7425495391312944E-01  -1.9882088418036703E-01  -5.9759182501466039E-04   2.4811730277884747E-04   3.3745065954766659E-02  -5.4866247018751516E-03
       1.050525  -2.4165068946137101E-02   1.1031177452972302E-02   4.2804787147896484E-01  -8.9690384741539331E-01  -1.7387613595177406E-04   6.8942303781193315E-04  -1.5667404044930520E-02  -3.2239225104220275E-02
       1.075538  -2.5364343087111108E-02   1.1364988418607421E-02  -4.5769969069356575E-01  -8.8152873414796973E-01   4.9130865454030269E-04   6.0356085724205192E-04  -2.7612393896203773E-02   2.5381638066067438E-02
       1.100550  -2.6568351895594144E-02   1.1690830859679842E-02  -9.7877413733041441E-01  -1.6573593934775235E-01   8.4791648632104354E-04  -3.6303855232228252E-05   3.3661162544070096E-02   2.0027879732491441E-02
       1.125563  -2.7775298891201807E-02   1.2008985694780521E-02  -7.2158912891183935E-01   6.8090396906401884E-01   5.1890979589053199E-04  -7.6243985328227498E-04   9.9516117051525830E-03  -3.9600345508441742E-02
       1.150575  -2.8983582497820837E-02   1.2319834949144451E-02   1.0856694738716867E-01   9.8557628655482965E-01  -3.2643620078114425E-04  -9.4405162795827165E-04  -4.2450957161083304E-02   1.8729852231305338E-03
       1.175588  -3.0191810424004459E-02   1.2623848852692819E-02   8.5146019828090580E-01   5.0691779646378399E-01  -1.0279575664546520E-03  -3.2625719538968408E-04   1.4479786412465253E-02   4.1706778494741054E-02
       1.200600  -3.1398811320712816E-02   1.2921571760498204E-02   9.1705498344077707E-01  -3.7382272465582023E-01  -9.4266620546351783E-04   6.7766564120983592E-04   3.7168750681853352E-02  -2.6760254919807637E-02
       1.225613  -3.2603643630659603E-02   1.3213607109954725E-02   2.5413261089549050E-01  -9.5651318519248596E-01  -2.0988807531587799E-05   1.2460824609493535E-03  -3.7562237869256873E-02  -2.8983147673750247E-02
       1.250625  -3.3805601581532334E-02   1.3500601638537887E-02  -6.0978992720430381E-01  -7.7872528173472000E-01   1.0565916059864608E-03   8.1482852590324627E-04  -1.7647764723724847E-02   4.5798150115779160E-02
       1.275638  -3.5004218312185705E-02   1.3783229092128474E-02  -9.8828394199767056E-01   1.7315750612486022E-02   1.3719114164300146E-03  -3.8535789533139585E-04   5.0552181784549663E-02   3.9841993148525068E-03
       1.300650  -3.6199266156009213E-02   1.4062173656459108E-02  -5.8140984419988118E-01   7.9856847495303573E-01   5.4363443240696774E-04  -1.4177022485322816E-03  -1.0922359114623158E-02  -5.1175959954668074E-02
       1.325663  -3.7390754138592545E-02   1.4338113343402100E-02   2.8665114969988287E-01   9.4462875604925001E-01  -8.6386135049132254E-04  -1.3637405285584576E-03  -4.7362951299448980E-02   2.5811160976959856E-02
       1.350675  -3.8578922777218257E-02   1.4611703559699660E-02   9.2594978917482185E-01   3.4037514961468934E-01  -1.7080336061108749E-03  -1.2886300485804675E-04   3.9354244506280930E-02   3.9193728420534014E-02
       1.375688  -3.9764236297368936E-02   1.4883561078545783E-02   8.2916294941513202E-01  -5.3336518044652259E-01  -1.1896642960176559E-03   1.3694893569492377E-03   2.7146854885846124E-02  -5.0275460856013136E-02
       1.400700  -4.0947372406211088E-02   1.5154248624412843E-02   7.4138294685675232E-02  -9.8247269317470287E-01   4.1031252119272057E-04   1.8734548616372263E-03  -5.7469315195746787E-02  -1.2073311676893527E-02
       1.425713  -4.2129209784862280E-02   1.5424260268960016E-02  -7.3877451896657842E-01  -6.5094637602910610E-01   1.8448130344669413E-03   8.3346056028349848E-04   4.8642189296158695E-03   6.0108567672529145E-02
       1.450725  -4.3310813480182564E-02   1.5694007821076088E-02  -9.6410975175710723E-01   1.9696108456725314E-01   1.8657255788135740E-03  -1.0350385570344874E-03   5.7730383092370184E-02  -2.2282602977003560E-02
       1.475738  -4.4493418392932346E-02   1.5963808377423366E-02  -4.2376019073872456E-01   8.8742602477019272E-01   2.9890541780177801E-04  -2.2257181071822156E-03  -3.8692545338875575E-02  -5.0292615976907755E-02
       1.500750  -4.5678411072518688E-02   1.6233873181595627E-02   4.5231388307190157E-01   8.7253740767110355E-01  -1.6890202480600504E-03  -1.6493856399639540E-03  -3.8194393364022160E-02   5.2626217786062059E-02
       1.525763  -4.6867310039346535E-02   1.6504297920514409E-02   9.6824649534351226E-01   1.6503379576274055E-01  -2.4484048956361277E-03   3.8807265818263193E-04   6.2767177656450915E-02   2.2258269082837227E-02
       1.550775  -4.8061744864143899E-02   1.6775054566293572E-02   7.1497441434733811E-01  -6.7260242752929178E-01  -1.2076160335624437E-03   2.3030348351008555E-03   3.6745861432892538E-03  -6.8071164161297520E-02
       1.575788  -4.9263434239683275E-02   1.7045984850812174E-02  -1.0549455447276357E-01  -9.7535409655273630E-01   1.1796679358495323E-03   2.4568493783447692E-03  -6.7866991630957177E-02   1.6087999853622331E-02
       1.600800  -5.0474163284204350E-02   1.7316795438952225E-02  -8.4125300947909876E-01  -5.0360464232207880E-01   2.8012076035691040E-03   5.4640423965353596E-04   3.5398899024848787E-02   6.1928323149485577E-02
       1.625813  -5.1695760317673291E-02   1.7587054845154493E-02  -9.0847401001465544E-01   3.6728159274148009E-01   2.2099183263103650E-03  -2.0088639400122005E-03   5.0509460829998999E-02  -5.2599526095735039E-02
       1.650825  -5.2930073351885203E-02   1.7856192116879225E-02  -2.5463041410317316E-01   9.4567283647965195E-01  -3.0340202429615936E-04  -3.1083980091294876E-03  -6.6143828506773861E-02  -3.4341226451766092E-02
       1.675838  -5.4178946533410252E-02   1.8123497287958520E-02   6.0053424348850248E-01   7.7293012686481766E-01  -2.7942171335208835E-03  -1.6874528077432320E-03  -1.4586283275379551E-02   7.4733701071920636E-02
       1.700850  -5.5444196774559668E-02   1.8388123584897113E-02   9.7818061640896359E-01  -1.2970784198207744E-02  -3.1580156698719501E-03   1.2863271125666126E-03   7.7437803506729436E-02  -7.2433982868258077E-03
       1.725863  -5.6727590801957516E-02   1.8649091350096684E-02   5.7921582174342168E-01  -7.8769992167387559E-01  -8.9480134346424519E-04   3.4463400252698370E-03  -2.9401065717856521E-02  -7.3783443924705400E-02
       1.750875  -5.8030822844986729E-02   1.8905293627896010E-02  -2.7889184498030273E-01  -9.3656287282994632E-01   2.3247706715069142E-03   2.8996358795410375E-03  -6.3813174961077759E-02   5.0043105140609778E-02
       1.775888  -5.9355493177374000E-02   1.9155503342358948E-02  -9.1478079795679212E-01  -3.4217789442921959E-01   3.8756062219757587E-03  -1.3455566117963566E-04   6.7379674671778564E-02   4.8100419350902431E-02
       1.800900  -6.0703087714523270E-02   1.9398381980001857E-02  -8.2421597382454148E-01   5.2303470201383062E-01   2.3058644461607554E-03  -3.3236450739708716E-03   2.7721601437597665E-02  -7.9826081121618944E-02
       1.825913  -6.2074958856946930E-02   1.9632489676198930E-02  -7.9876471077920147E-02   9.7237419517949386E-01  -1.3385291149103423E-03  -4.0005908869112216E-03  -8.6142550185742614E-02  -4.1856800605514222E-03
       1.850925  -6.3472307756315224E-02   1.9856296590874407E-02   7.2702619430617654E-01   6.4986483835283615E-01  -4.1769437478866188E-03  -1.3779685419013257E-03   2.0674591878694137E-02   8.5550607082287622E-02
       1.875938  -6.4896168165278059E-02   2.0068195447279759E-02   9.5636192454997371E-01  -1.8779215830183396E-01  -3.7567587780706502E-03   2.6282600156526128E-03   7.7815776702580747E-02  -4.4842166919763525E-02
       1.900950  -6.6347392015281642E-02   2.0266515097105350E-02   4.2688110120971645E-01  -8.7559708000929437E-01  -1.4981866007082259E-04   4.7759913643250192E-03  -6.6275739630537345E-02  -6.3288644655976847E-02
       1.925963  -6.7826636847926683E-02   2.0449534965767333E-02  -4.4060505651272058E-01  -8.6819793270708590E-01   3.8924002117560561E-03   3.1048814716560938E-03  -4.2899348617596929E-02   8.3078086264588388E-02
       1.950975  -6.9334355204445086E-02   2.0615500223263739E-02  -9.5772067824215390E-01  -1.7225372922511512E-01   5.0190604345898724E-03  -1.3103224828441822E-03   9.3659332070193793E-02   1.8104095701676239E-02
       1.975988  -7.0870786053204973E-02   2.0762637518396961E-02  -7.1477413053817396E-01   6.5953999413876085E-01   2.0385875693683048E-03  -5.0039112460989231E-03  -9.2139148408031252E-03  -9.6881622655506816E-02
       2.001001  -7.2435948303531797E-02   2.0889171107817156E-02   9.4708700058499878E-02   9.6742608212061465E-01  -2.9006483291747595E-03  -4.8219175940183217E-03  -9.2172579993138201E-02   3.6883015628696517E-02
       2.026013  -7.4029814180814488E-02   2.0993349120009129E-02   8.2820496250784725E-01   5.0787643419129902E-01  -5.8293790931127536E-03  -5.9034351323558490E-04   6.2611497343834074E-02   7.9597095930559997E-02
       2.051026  -7.5653065942491632E-02   2.1073478126768620E-02   9.0422582446084454E-01  -3.5384325985505605E-01  -4.1288935881363996E-03   4.4898963003882839E-03   5.9879925375788880E-02  -8.4174177150618826E-02
       2.076038  -7.7306341199161008E-02   2.1127856879876585E-02   2.6327736098601756E-01  -9.3405980303149927E-01   1.1649446996016214E-03   6.2413523639467594E-03  -9.9601374687741898E-02  -3.4371764374314495E-02
       2.101051  -7.8990106233035651E-02   2.1154775329981557E-02  -5.8565189575875998E-01  -7.7313064407900267E-01   5.9257471400791361E-03   2.9235770042080216E-03  -4.9625401607667971E-03   1.0735378618929259E-01
       2.126063  -8.0704657775514471E-02   2.1152522889794884E-02  -9.6934816243191224E-01   4.6733208063668607E-04   6.1317999107182632E-03  -3.1108429079903695E-03   1.0646890151625717E-01  -2.6053640043519070E-02
       2.151076  -8.2450125339223260E-02   2.1119396500201743E-02  -5.8425231010578815E-01   7.7277427485860772E-01   1.2356277881046425E-03  -7.0461527964462379E-03  -5.6152964054556984E-02  -9.6665638807129112E-02
       2.176088  -8.4226474117037584E-02   2.1053708474166807E-02   2.6343311321975105E-01   9.3166718956621064E-01  -5.0942658923940187E-03  -5.4247063316218121E-03  -7.8396660193760098E-02   8.2783059815661239E-02
       2.201101  -8.6033508443960405E-02   2.0953794090729991E-02   9.0129159454953989E-01   3.5201792992852832E-01  -7.6928133700352504E-03   8.5493532858583673E-04   1.0357525346461351E-01   5.2841675836148468E-02
       2.226113  -8.7870875808575208E-02   2.0818018911771367E-02   8.2412547600611785E-01  -5.0583851118273671E-01  -4.0882389501245547E-03   6.9338739028900458E-03   2.1839634125193828E-02  -1.1655072521556285E-01
       2.251126  -8.9738071395343760E-02   2.0644785795352647E-02   9.4060178254215129E-02  -9.6176271182637729E-01   3.2170804723245000E-03   7.7265734187512590E-03  -1.2030303616308259E-01   1.2237304801012806E-02
