# population in each cavity level over  time for $\ket{\Psi(t=0)} = \ket{00}$ (integrated over all qubit levels)
#        t [ns]            0            1            2            3            4            5
       0.000000  1.00000E+00  0.00000E+00  0.00000E+00  0.00000E+00  0.00000E+00  0.00000E+00
       0.025013  1.00000E+00  4.16738E-12  8.68354E-24  1.20625E-35  1.25673E-47  8.16799E-60
       0.050025  1.00000E+00  4.13715E-10  8.55802E-20  1.18019E-29  1.22066E-39  7.66538E-50
       0.075038  1.00000E+00  5.02818E-09  1.26413E-17  2.11876E-26  2.66338E-35  1.89790E-44
       0.100050  1.00000E+00  2.87011E-08  4.11877E-16  3.94044E-24  2.82738E-32  1.06894E-40
       0.125063  1.00000E+00  1.09605E-07  6.00660E-15  2.19451E-22  6.01321E-30  8.06183E-38
       0.150075  1.00000E+00  3.25505E-07  5.29766E-14  5.74805E-21  4.67754E-28  1.72983E-35
       0.175088  9.99999E-01  8.13289E-07  3.30720E-13  8.96570E-20  1.82293E-26  1.56574E-33
       0.200100  9.99998E-01  1.79087E-06  1.60362E-12  9.57293E-19  4.28598E-25  7.54337E-32
       0.225113  9.99996E-01  3.58049E-06  6.40997E-12  7.65029E-18  6.84797E-24  2.24500E-30
       0.250125  9.99993E-01  6.63230E-06  2.19938E-11  4.86235E-17  8.06220E-23  4.56690E-29
       0.275138  9.99988E-01  1.15473E-05  6.66703E-11  2.56622E-16  7.40831E-22  6.82358E-28
       0.300150  9.99981E-01  1.90981E-05  1.82372E-10  1.16100E-15  5.54336E-21  7.89559E-27
       0.325163  9.99970E-01  3.02473E-05  4.57463E-10  4.61248E-15  3.48799E-20  7.36477E-26
       0.350175  9.99954E-01  4.61613E-05  1.06548E-09  1.63955E-14  1.89219E-19  5.71282E-25
       0.375188  9.99932E-01  6.82198E-05  2.32713E-09  5.29225E-14  9.02661E-19  3.77705E-24
       0.400200  9.99902E-01  9.80192E-05  4.80436E-09  1.56989E-13  3.84740E-18  2.17106E-23
       0.425213  9.99863E-01  1.37370E-04  9.43658E-09  4.32161E-13  1.48439E-17  1.10265E-22
       0.450225  9.99812E-01  1.88288E-04  1.77296E-08  1.11297E-12  5.24012E-17  5.01499E-22
       0.475238  9.99747E-01  2.52979E-04  3.20072E-08  2.69973E-12  1.70793E-16  2.06553E-21
       0.500250  9.99666E-01  3.33811E-04  5.57336E-08  6.20358E-12  5.17907E-16  7.77744E-21
       0.525263  9.99567E-01  4.33294E-04  9.39124E-08  1.35698E-11  1.47066E-15  2.69894E-20
       0.550275  9.99446E-01  5.54033E-04  1.53561E-07  2.83751E-11  3.93273E-15  8.69202E-20
       0.575288  9.99301E-01  6.98696E-04  2.44259E-07  5.69273E-11  9.95186E-15  2.61355E-19
       0.600300  9.99130E-01  8.69962E-04  3.78747E-07  1.09927E-10  2.39326E-14  7.37570E-19
       0.625313  9.98929E-01  1.07047E-03  5.73571E-07  2.04884E-10  5.48997E-14  1.96264E-18
       0.650325  9.98696E-01  1.30278E-03  8.49731E-07  3.69486E-10  1.20525E-13  4.94439E-18
       0.675338  9.98429E-01  1.56930E-03  1.23329E-06  6.46150E-10  2.53971E-13  1.18355E-17
       0.700350  9.98126E-01  1.87224E-03  1.75594E-06  1.09790E-09  5.15023E-13  2.70064E-17
       0.725363  9.97784E-01  2.21357E-03  2.45539E-06  1.81574E-09  1.00745E-12  5.89129E-17
       0.750375  9.97402E-01  2.59495E-03  3.37565E-06  2.92747E-09  1.90501E-12  1.23183E-16
       0.775388  9.96978E-01  3.01771E-03  4.56707E-06  4.60792E-09  3.48880E-12  2.47467E-16
       0.800400  9.96511E-01  3.48278E-03  6.08609E-06  7.09018E-09  6.19896E-12  4.78682E-16
       0.825413  9.96001E-01  3.99070E-03  7.99476E-06  1.06775E-08  1.07033E-11  8.93293E-16
       0.850425  9.95448E-01  4.54154E-03  1.03599E-05  1.57548E-08  1.79846E-11  1.61119E-15
       0.875438  9.94852E-01  5.13494E-03  1.32519E-05  2.27997E-08  2.94479E-11  2.81339E-15
       0.900450  9.94213E-01  5.77006E-03  1.67435E-05  3.23906E-08  4.70453E-11  4.76343E-15
       0.925463  9.93533E-01  6.44559E-03  2.09078E-05  4.52123E-08  7.34148E-11  7.83149E-15
       0.950475  9.92814E-01  7.15977E-03  2.58163E-05  6.20571E-08  1.12026E-10  1.25197E-14
       0.975488  9.92058E-01  7.91039E-03  3.15371E-05  8.38199E-08  1.67323E-10  1.94859E-14
       1.000500  9.91266E-01  8.69485E-03  3.81325E-05  1.11488E-07  2.44850E-10  2.95633E-14
       1.025513  9.90443E-01  9.51016E-03  4.56568E-05  1.46124E-07  3.51341E-10  4.37715E-14
       1.050525  9.89592E-01  1.03530E-02  5.41542E-05  1.88841E-07  4.94767E-10  6.33163E-14
       1.075538  9.88716E-01  1.12197E-02  6.36571E-05  2.40772E-07  6.84313E-10  8.95748E-14
       1.100550  9.87818E-01  1.21065E-02  7.41840E-05  3.03036E-07  9.30276E-10  1.24065E-13
       1.125563  9.86904E-01  1.30092E-02  8.57386E-05  3.76695E-07  1.24387E-09  1.68400E-13
       1.150575  9.85976E-01  1.39238E-02  9.83089E-05  4.62715E-07  1.63696E-09  2.24228E-13
       1.175588  9.85040E-01  1.48459E-02  1.11866E-04  5.61920E-07  2.12165E-09  2.93163E-13
       1.200600  9.84100E-01  1.57713E-02  1.26367E-04  6.74952E-07  2.70990E-09  3.76713E-13
       1.225613  9.83160E-01  1.66958E-02  1.41749E-04  8.02237E-07  3.41293E-09  4.76215E-13
       1.250625  9.82224E-01  1.76152E-02  1.57938E-04  9.43953E-07  4.24077E-09  5.92775E-13
       1.275638  9.81297E-01  1.85254E-02  1.74845E-04  1.10000E-06  5.20165E-09  7.27229E-13
       1.300650  9.80382E-01  1.94228E-02  1.92369E-04  1.27002E-06  6.30153E-09  8.80126E-13
       1.325663  9.79482E-01  2.03036E-02  2.10400E-04  1.45332E-06  7.54363E-09  1.05173E-12
       1.350675  9.78603E-01  2.11645E-02  2.28821E-04  1.64898E-06  8.92809E-09  1.24204E-12
       1.375688  9.77746E-01  2.20025E-02  2.47508E-04  1.85578E-06  1.04518E-08  1.45086E-12
       1.400700  9.76914E-01  2.28147E-02  2.66336E-04  2.07230E-06  1.21081E-08  1.67780E-12
       1.425713  9.76111E-01  2.35987E-02  2.85179E-04  2.29688E-06  1.38871E-08  1.92241E-12
       1.450725  9.75338E-01  2.43524E-02  3.03913E-04  2.52774E-06  1.57758E-08  2.18417E-12
       1.475738  9.74598E-01  2.50740E-02  3.22419E-04  2.76296E-06  1.77584E-08  2.46260E-12
       1.500750  9.73891E-01  2.57621E-02  3.40584E-04  3.00057E-06  1.98165E-08  2.75723E-12
       1.525763  9.73219E-01  2.64154E-02  3.58302E-04  3.23857E-06  2.19300E-08  3.06770E-12
       1.550775  9.72584E-01  2.70332E-02  3.75478E-04  3.47501E-06  2.40777E-08  3.39369E-12
       1.575788  9.71985E-01  2.76151E-02  3.92026E-04  3.70799E-06  2.62377E-08  3.73497E-12
       1.600800  9.71423E-01  2.81608E-02  4.07872E-04  3.93573E-06  2.83880E-08  4.09132E-12
       1.625813  9.70898E-01  2.86704E-02  4.22955E-04  4.15662E-06  3.05074E-08  4.46254E-12
       1.650825  9.70409E-01  2.91442E-02  4.37225E-04  4.36920E-06  3.25760E-08  4.84841E-12
       1.675838  9.69957E-01  2.95829E-02  4.50645E-04  4.57222E-06  3.45753E-08  5.24863E-12
       1.700850  9.69539E-01  2.99873E-02  4.63189E-04  4.76462E-06  3.64892E-08  5.66286E-12
       1.725863  9.69156E-01  3.03583E-02  4.74844E-04  4.94559E-06  3.83040E-08  6.09064E-12
       1.750875  9.68806E-01  3.06972E-02  4.85606E-04  5.11453E-06  4.00085E-08  6.53144E-12
       1.775888  9.68488E-01  3.10053E-02  4.95485E-04  5.27106E-06  4.15944E-08  6.98467E-12
       1.800900  9.68200E-01  3.12840E-02  5.04497E-04  5.41499E-06  4.30564E-08  7.44968E-12
       1.825913  9.67940E-01  3.15351E-02  5.12668E-04  5.54638E-06  4.43916E-08  7.92585E-12
       1.850925  9.67707E-01  3.17601E-02  5.20032E-04  5.66542E-06  4.56000E-08  8.41259E-12
       1.875938  9.67500E-01  3.19608E-02  5.26630E-04  5.77251E-06  4.66841E-08  8.90942E-12
       1.900950  9.67315E-01  3.21390E-02  5.32506E-04  5.86819E-06  4.76486E-08  9.41598E-12
       1.925963  9.67152E-01  3.22967E-02  5.37713E-04  5.95310E-06  4.85002E-08  9.93213E-12
       1.950975  9.67008E-01  3.24356E-02  5.42305E-04  6.02803E-06  4.92472E-08  1.04579E-11
       1.975988  9.66881E-01  3.25578E-02  5.46339E-04  6.09382E-06  4.98993E-08  1.09935E-11
       2.001001  9.66770E-01  3.26649E-02  5.49873E-04  6.15142E-06  5.04675E-08  1.15394E-11
       2.026013  9.66673E-01  3.27591E-02  5.52970E-04  6.20182E-06  5.09637E-08  1.20981E-11
       2.051026  9.66586E-01  3.28425E-02  5.55706E-04  6.24632E-06  5.14035E-08  1.26811E-11
       2.076038  9.66509E-01  3.29175E-02  5.58164E-04  6.28632E-06  5.18032E-08  1.32975E-11
       2.101051  9.66437E-01  3.29864E-02  5.60424E-04  6.32325E-06  5.21801E-08  1.39539E-11
       2.126063  9.66369E-01  3.30516E-02  5.62571E-04  6.35859E-06  5.25519E-08  1.46564E-11
       2.151076  9.66303E-01  3.31154E-02  5.64687E-04  6.39385E-06  5.29369E-08  1.54107E-11
       2.176088  9.66236E-01  3.31802E-02  5.66860E-04  6.43060E-06  5.33535E-08  1.62230E-11
       2.201101  9.66165E-01  3.32483E-02  5.69173E-04  6.47043E-06  5.38210E-08  1.70999E-11
       2.226113  9.66088E-01  3.33220E-02  5.71716E-04  6.51496E-06  5.43588E-08  1.80485E-11
       2.251126  9.66004E-01  3.34037E-02  5.74573E-04  6.56586E-06  5.49873E-08  1.90767E-11
       2.276138  9.65908E-01  3.34955E-02  5.77835E-04  6.62484E-06  5.57272E-08  2.01929E-11
       2.301151  9.65800E-01  3.35997E-02  5.81589E-04  6.69364E-06  5.66007E-08  2.14068E-11
       2.326163  9.65676E-01  3.37186E-02  5.85925E-04  6.77409E-06  5.76309E-08  2.27293E-11
       2.351176  9.65535E-01  3.38543E-02  5.90932E-04  6.86804E-06  5.88426E-08  2.41725E-11
       2.376188  9.65374E-01  3.40089E-02  5.96701E-04  6.97745E-06  6.02623E-08  2.57509E-11
       2.401201  9.65192E-01  3.41845E-02  6.03324E-04  7.10434E-06  6.19191E-08  2.74809E-11
       2.426213  9.64985E-01  3.43831E-02  6.10892E-04  7.25083E-06  6.38445E-08  2.93821E-11
       2.451226  9.64752E-01  3.46065E-02  6.19498E-04  7.41915E-06  6.60734E-08  3.14771E-11
       2.476238  9.64492E-01  3.48565E-02  6.29236E-04  7.61165E-06  6.86444E-08  3.37929E-11
       2.501251  9.64202E-01  3.51348E-02  6.40199E-04  7.83082E-06  7.16000E-08  3.63610E-11
       2.526263  9.63881E-01  3.54431E-02  6.52484E-04  8.07930E-06  7.49878E-08  3.92183E-11
       2.551276  9.63527E-01  3.57827E-02  6.66185E-04  8.35988E-06  7.88605E-08  4.24078E-11
       2.576288  9.63139E-01  3.61550E-02  6.81399E-04  8.67555E-06  8.32767E-08  4.59790E-11
       2.601301  9.62715E-01  3.65612E-02  6.98222E-04  9.02947E-06  8.83015E-08  4.99892E-11
       2.626313  9.62255E-01  3.70022E-02  7.16751E-04  9.42501E-06  9.40067E-08  5.45034E-11
       2.651326  9.61757E-01  3.74789E-02  7.37080E-04  9.86575E-06  1.00472E-07  5.95953E-11
       2.676338  9.61221E-01  3.79920E-02  7.59306E-04  1.03555E-05  1.07784E-07  6.53474E-11
       2.701351  9.60646E-01  3.85420E-02  7.83523E-04  1.08983E-05  1.16040E-07  7.18516E-11
       2.726363  9.60031E-01  3.91292E-02  8.09823E-04  1.14983E-05  1.25345E-07  7.92096E-11
       2.751376  9.59377E-01  3.97538E-02  8.38295E-04  1.21600E-05  1.35811E-07  8.75325E-11
       2.776388  9.58684E-01  4.04156E-02  8.69027E-04  1.28881E-05  1.47564E-07  9.69415E-11
       2.801401  9.57950E-01  4.11145E-02  9.02102E-04  1.36875E-05  1.60737E-07  1.07567E-10
       2.826413  9.57178E-01  4.18499E-02  9.37596E-04  1.45631E-05  1.75474E-07  1.19550E-10
       2.851426  9.56367E-01  4.26212E-02  9.75583E-04  1.55201E-05  1.91929E-07  1.33040E-10
       2.876438  9.55519E-01  4.34277E-02  1.01613E-03  1.65638E-05  2.10264E-07  1.48196E-10
       2.901451  9.54634E-01  4.42683E-02  1.05929E-03  1.76997E-05  2.30655E-07  1.65185E-10
       2.926463  9.53713E-01  4.51417E-02  1.10511E-03  1.89329E-05  2.53283E-07  1.84182E-10
       2.951476  9.52757E-01  4.60467E-02  1.15363E-03  2.02689E-05  2.78339E-07  2.05372E-10
       2.976488  9.51769E-01  4.69816E-02  1.20489E-03  2.17130E-05  3.06023E-07  2.28944E-10
       3.001501  9.50750E-01  4.79448E-02  1.25889E-03  2.32701E-05  3.36539E-07  2.55095E-10
       3.026513  9.49701E-01  4.89345E-02  1.31563E-03  2.49452E-05  3.70097E-07  2.84027E-10
       3.051526  9.48625E-01  4.99486E-02  1.37512E-03  2.67427E-05  4.06910E-07  3.15948E-10
       3.076538  9.47524E-01  5.09850E-02  1.43731E-03  2.86668E-05  4.47192E-07  3.51065E-10
       3.101551  9.46400E-01  5.20416E-02  1.50217E-03  3.07211E-05  4.91154E-07  3.89592E-10
       3.126563  9.45256E-01  5.31159E-02  1.56964E-03  3.29086E-05  5.39004E-07  4.31739E-10
       3.151576  9.44093E-01  5.42056E-02  1.63965E-03  3.52318E-05  5.90939E-07  4.77715E-10
       3.176588  9.42915E-01  5.53081E-02  1.71210E-03  3.76922E-05  6.47148E-07  5.27724E-10
       3.201601  9.41724E-01  5.64209E-02  1.78689E-03  4.02907E-05  7.07801E-07  5.81962E-10
       3.226613  9.40523E-01  5.75414E-02  1.86389E-03  4.30271E-05  7.73050E-07  6.40615E-10
       3.251626  9.39315E-01  5.86670E-02  1.94296E-03  4.59003E-05  8.43023E-07  7.03853E-10
       3.276638  9.38102E-01  5.97949E-02  2.02393E-03  4.89083E-05  9.17817E-07  7.71829E-10
       3.301651  9.36888E-01  6.09224E-02  2.10664E-03  5.20477E-05  9.97499E-07  8.44671E-10
       3.326663  9.35675E-01  6.20470E-02  2.19089E-03  5.53141E-05  1.08210E-06  9.22482E-10
       3.351676  9.34467E-01  6.31659E-02  2.27648E-03  5.87020E-05  1.17160E-06  1.00533E-09
       3.376688  9.33265E-01  6.42764E-02  2.36318E-03  6.22046E-05  1.26594E-06  1.09326E-09
       3.401701  9.32074E-01  6.53761E-02  2.45076E-03  6.58140E-05  1.36501E-06  1.18625E-09
       3.426713  9.30895E-01  6.64622E-02  2.53898E-03  6.95211E-05  1.46866E-06  1.28425E-09
       3.451726  9.29731E-01  6.75323E-02  2.62759E-03  7.33155E-05  1.57668E-06  1.38718E-09
       3.476738  9.28586E-01  6.85840E-02  2.71631E-03  7.71859E-05  1.68878E-06  1.49488E-09
       3.501751  9.27462E-01  6.96148E-02  2.80489E-03  8.11198E-05  1.80465E-06  1.60714E-09
       3.526763  9.26361E-01  7.06225E-02  2.89305E-03  8.51039E-05  1.92392E-06  1.72372E-09
       3.551776  9.25287E-01  7.16049E-02  2.98051E-03  8.91238E-05  2.04613E-06  1.84430E-09
       3.576788  9.24240E-01  7.25598E-02  3.06698E-03  9.31644E-05  2.17081E-06  1.96852E-09
       3.601801  9.23225E-01  7.34852E-02  3.15219E-03  9.72101E-05  2.29743E-06  2.09596E-09
       3.626813  9.22242E-01  7.43792E-02  3.23585E-03  1.01244E-04  2.42541E-06  2.22617E-09
       3.651826  9.21294E-01  7.52399E-02  3.31769E-03  1.05251E-04  2.55413E-06  2.35863E-09
       3.676838  9.20384E-01  7.60657E-02  3.39743E-03  1.09212E-04  2.68295E-06  2.49279E-09
       3.701851  9.19513E-01  7.68548E-02  3.47482E-03  1.13111E-04  2.81119E-06  2.62807E-09
       3.726863  9.18682E-01  7.76059E-02  3.54959E-03  1.16930E-04  2.93815E-06  2.76386E-09
       3.751876  9.17894E-01  7.83174E-02  3.62149E-03  1.20653E-04  3.06315E-06  2.89951E-09
       3.776888  9.17150E-01  7.89881E-02  3.69028E-03  1.24263E-04  3.18546E-06  3.03440E-09
       3.801901  9.16451E-01  7.96168E-02  3.75574E-03  1.27743E-04  3.30441E-06  3.16786E-09
       3.826913  9.15799E-01  8.02025E-02  3.81766E-03  1.31078E-04  3.41930E-06  3.29923E-09
       3.851926  9.15195E-01  8.07442E-02  3.87584E-03  1.34252E-04  3.52947E-06  3.42789E-09
       3.876938  9.14640E-01  8.12410E-02  3.93009E-03  1.37252E-04  3.63430E-06  3.55320E-09
       3.901951  9.14135E-01  8.16921E-02  3.98025E-03  1.40064E-04  3.73319E-06  3.67456E-09
       3.926963  9.13680E-01  8.20969E-02  4.02617E-03  1.42676E-04  3.82560E-06  3.79140E-09
       3.951976  9.13277E-01  8.24550E-02  4.06771E-03  1.45077E-04  3.91103E-06  3.90319E-09
       3.976988  9.12926E-01  8.27657E-02  4.10477E-03  1.47257E-04  3.98905E-06  4.00944E-09
       4.002001  9.12628E-01  8.30288E-02  4.13725E-03  1.49208E-04  4.05928E-06  4.10968E-09
       4.027014  9.12382E-01  8.32440E-02  4.16507E-03  1.50921E-04  4.12140E-06  4.20353E-09
       4.052026  9.12189E-01  8.34112E-02  4.18817E-03  1.52393E-04  4.17516E-06  4.29064E-09
       4.077039  9.12049E-01  8.35302E-02  4.20652E-03  1.53617E-04  4.22038E-06  4.37070E-09
       4.102051  9.11963E-01  8.36012E-02  4.22010E-03  1.54592E-04  4.25694E-06  4.44347E-09
       4.127064  9.11929E-01  8.36243E-02  4.22891E-03  1.55316E-04  4.28481E-06  4.50876E-09
       4.152076  9.11948E-01  8.35996E-02  4.23296E-03  1.55788E-04  4.30400E-06  4.56643E-09
       4.177089  9.12020E-01  8.35275E-02  4.23230E-03  1.56011E-04  4.31458E-06  4.61640E-09
       4.202101  9.12143E-01  8.34084E-02  4.22698E-03  1.55988E-04  4.31670E-06  4.65862E-09
       4.227114  9.12318E-01  8.32427E-02  4.21708E-03  1.55722E-04  4.31056E-06  4.69310E-09
       4.252126  9.12543E-01  8.30309E-02  4.20268E-03  1.55219E-04  4.29640E-06  4.71991E-09
       4.277139  9.12819E-01  8.27739E-02  4.18390E-03  1.54486E-04  4.27453E-06  4.73914E-09
       4.302151  9.13144E-01  8.24722E-02  4.16085E-03  1.53531E-04  4.24528E-06  4.75093E-09
       4.327164  9.13516E-01  8.21267E-02  4.13368E-03  1.52362E-04  4.20902E-06  4.75547E-09
       4.352176  9.13936E-01  8.17382E-02  4.10254E-03  1.50989E-04  4.16617E-06  4.75299E-09
       4.377189  9.14402E-01  8.13079E-02  4.06759E-03  1.49423E-04  4.11716E-06  4.74373E-09
       4.402201  9.14913E-01  8.08366E-02  4.02901E-03  1.47676E-04  4.06244E-06  4.72799E-09
       4.427214  9.15467E-01  8.03256E-02  3.98698E-03  1.45759E-04  4.00249E-06  4.70610E-09
       4.452226  9.16063E-01  7.97761E-02  3.94172E-03  1.43685E-04  3.93778E-06  4.67841E-09
       4.477239  9.16699E-01  7.91894E-02  3.89341E-03  1.41466E-04  3.86881E-06  4.64532E-09
       4.502251  9.17374E-01  7.85668E-02  3.84229E-03  1.39117E-04  3.79606E-06  4.60723E-09
       4.527264  9.18086E-01  7.79097E-02  3.78856E-03  1.36650E-04  3.72002E-06  4.56457E-09
       4.552276  9.18834E-01  7.72198E-02  3.73245E-03  1.34078E-04  3.64117E-06  4.51782E-09
       4.577289  9.19615E-01  7.64985E-02  3.67420E-03  1.31416E-04  3.55998E-06  4.46743E-09
       4.602301  9.20428E-01  7.57474E-02  3.61403E-03  1.28675E-04  3.47691E-06  4.41390E-09
       4.627314  9.21271E-01  7.49683E-02  3.55216E-03  1.25870E-04  3.39240E-06  4.35771E-09
       4.652326  9.22141E-01  7.41629E-02  3.48885E-03  1.23012E-04  3.30686E-06  4.29937E-09
       4.677339  9.23038E-01  7.33330E-02  3.42430E-03  1.20113E-04  3.22071E-06  4.23937E-09
       4.702351  9.23958E-01  7.24804E-02  3.35875E-03  1.17186E-04  3.13432E-06  4.17821E-09
       4.727364  9.24899E-01  7.16071E-02  3.29241E-03  1.14241E-04  3.04805E-06  4.11634E-09
       4.752376  9.25860E-01  7.07148E-02  3.22552E-03  1.11290E-04  2.96223E-06  4.05425E-09
       4.777389  9.26839E-01  6.98056E-02  3.15826E-03  1.08341E-04  2.87718E-06  3.99235E-09
       4.802401  9.27833E-01  6.88813E-02  3.09084E-03  1.05404E-04  2.79318E-06  3.93106E-09
       4.827414  9.28839E-01  6.79440E-02  3.02347E-03  1.02488E-04  2.71048E-06  3.87075E-09
       4.852426  9.29857E-01  6.69956E-02  2.95631E-03  9.95999E-05  2.62933E-06  3.81177E-09
       4.877439  9.30883E-01  6.60381E-02  2.88955E-03  9.67480E-05  2.54994E-06  3.75441E-09
       4.902451  9.31915E-01  6.50734E-02  2.82335E-03  9.39383E-05  2.47249E-06  3.69894E-09
       4.927464  9.32953E-01  6.41036E-02  2.75786E-03  9.11766E-05  2.39715E-06  3.64559E-09
       4.952476  9.33992E-01  6.31304E-02  2.69322E-03  8.84683E-05  2.32408E-06  3.59453E-09
       4.977489  9.35032E-01  6.21559E-02  2.62956E-03  8.58178E-05  2.25338E-06  3.54591E-09
       5.002501  9.36070E-01  6.11819E-02  2.56700E-03  8.32292E-05  2.18519E-06  3.49985E-09
       5.027514  9.37105E-01  6.02102E-02  2.50565E-03  8.07059E-05  2.11958E-06  3.45641E-09
       5.052526  9.38134E-01  5.92426E-02  2.44559E-03  7.82506E-05  2.05663E-06  3.41564E-09
       5.077539  9.39156E-01  5.82808E-02  2.38692E-03  7.58659E-05  1.99641E-06  3.37756E-09
       5.102551  9.40169E-01  5.73264E-02  2.32971E-03  7.35535E-05  1.93897E-06  3.34216E-09
       5.127564  9.41171E-01  5.63811E-02  2.27401E-03  7.13150E-05  1.88434E-06  3.30943E-09
       5.152576  9.42161E-01  5.54464E-02  2.21988E-03  6.91515E-05  1.83255E-06  3.27932E-09
       5.177589  9.43137E-01  5.45238E-02  2.16736E-03  6.70636E-05  1.78362E-06  3.25179E-09
       5.202601  9.44098E-01  5.36145E-02  2.11647E-03  6.50518E-05  1.73756E-06  3.22679E-09
       5.227614  9.45043E-01  5.27200E-02  2.06725E-03  6.31161E-05  1.69438E-06  3.20427E-09
