# population in each left-qubit level over  time for $\ket{\Psi(t=0)} = \ket{10}$ (integrated over all cavity levels)
#        t [ns]            0            1            2            3            4
       0.000000  9.89990E-02  9.01001E-01  3.34184E-28  9.25954E-30  1.73430E-32
       0.025013  9.89985E-02  9.00999E-01  2.27202E-16  9.28889E-30  3.73773E-33
       0.050025  9.89980E-02  9.00998E-01  3.25127E-14  4.49673E-28  1.25553E-33
       0.075038  9.89975E-02  9.00996E-01  7.29051E-13  2.21004E-25  1.03282E-33
       0.100050  9.89969E-02  9.00994E-01  6.90174E-12  1.97890E-23  9.85984E-34
       0.125063  9.89964E-02  9.00992E-01  3.99212E-11  6.61421E-22  1.79135E-33
       0.150075  9.89959E-02  9.00991E-01  1.68070E-10  1.17089E-20  2.28336E-31
       0.175088  9.89954E-02  9.00989E-01  5.66912E-10  1.33028E-19  8.76653E-30
       0.200100  9.89949E-02  9.00987E-01  1.62393E-09  1.08973E-18  1.91291E-28
       0.225113  9.89943E-02  9.00986E-01  4.10302E-09  6.94341E-18  2.83801E-27
       0.250125  9.89938E-02  9.00984E-01  9.38508E-09  3.62514E-17  3.12484E-26
       0.275138  9.89933E-02  9.00982E-01  1.98004E-08  1.60983E-16  2.70485E-25
       0.300150  9.89929E-02  9.00980E-01  3.90669E-08  6.25086E-16  1.91895E-24
       0.325163  9.89924E-02  9.00979E-01  7.28474E-08  2.16740E-15  1.15151E-23
       0.350175  9.89919E-02  9.00977E-01  1.29433E-07  6.82167E-15  5.98923E-23
       0.375188  9.89915E-02  9.00975E-01  2.20559E-07  1.97443E-14  2.75290E-22
       0.400200  9.89911E-02  9.00973E-01  3.62354E-07  5.31063E-14  1.13581E-21
       0.425213  9.89907E-02  9.00971E-01  5.76416E-07  1.33886E-13  4.26048E-21
       0.450225  9.89904E-02  9.00969E-01  8.91002E-07  3.18642E-13  1.46839E-20
       0.475238  9.89902E-02  9.00966E-01  1.34233E-06  7.20178E-13  4.69130E-20
       0.500250  9.89901E-02  9.00963E-01  1.97594E-06  1.55360E-12  1.39981E-19
       0.525263  9.89901E-02  9.00960E-01  2.84812E-06  3.21272E-12  3.92585E-19
       0.550275  9.89902E-02  9.00957E-01  4.02739E-06  6.39228E-12  1.04058E-18
       0.575288  9.89905E-02  9.00953E-01  5.59587E-06  1.22767E-11  2.61912E-18
       0.600300  9.89911E-02  9.00948E-01  7.65070E-06  2.28232E-11  6.28600E-18
       0.625313  9.89920E-02  9.00942E-01  1.03053E-05  4.11722E-11  1.44381E-17
       0.650325  9.89933E-02  9.00935E-01  1.36904E-05  7.22293E-11  3.18387E-17
       0.675338  9.89949E-02  9.00927E-01  1.79554E-05  1.23464E-10  6.75996E-17
       0.700350  9.89972E-02  9.00917E-01  2.32684E-05  2.05985E-10  1.38540E-16
       0.725363  9.90000E-02  9.00905E-01  2.98173E-05  3.35942E-10  2.74684E-16
       0.750375  9.90036E-02  9.00892E-01  3.78096E-05  5.36327E-10  5.27963E-16
       0.775388  9.90081E-02  9.00875E-01  4.74722E-05  8.39218E-10  9.85558E-16
       0.800400  9.90135E-02  9.00856E-01  5.90513E-05  1.28852E-09  1.78975E-15
       0.825413  9.90202E-02  9.00833E-01  7.28106E-05  1.94322E-09  3.16659E-15
       0.850425  9.90281E-02  9.00807E-01  8.90311E-05  2.88124E-09  5.46610E-15
       0.875438  9.90375E-02  9.00776E-01  1.08008E-04  4.20372E-09  9.21721E-15
       0.900450  9.90486E-02  9.00741E-01  1.30051E-04  6.03986E-09  1.52006E-14
       0.925463  9.90616E-02  9.00700E-01  1.55478E-04  8.55209E-09  2.45427E-14
       0.950475  9.90766E-02  9.00654E-01  1.84617E-04  1.19415E-08  3.88341E-14
       0.975488  9.90940E-02  9.00601E-01  2.17799E-04  1.64535E-08  6.02739E-14
       1.000500  9.91139E-02  9.00541E-01  2.55356E-04  2.23829E-08  9.18415E-14
       1.025513  9.91365E-02  9.00474E-01  2.97619E-04  3.00790E-08  1.37494E-13
       1.050525  9.91622E-02  9.00399E-01  3.44912E-04  3.99500E-08  2.02388E-13
       1.075538  9.91912E-02  9.00315E-01  3.97550E-04  5.24657E-08  2.93116E-13
       1.100550  9.92238E-02  9.00221E-01  4.55833E-04  6.81599E-08  4.17955E-13
       1.125563  9.92601E-02  9.00118E-01  5.20044E-04  8.76303E-08  5.87109E-13
       1.150575  9.93005E-02  9.00005E-01  5.90446E-04  1.11536E-07  8.12937E-13
       1.175588  9.93453E-02  8.99881E-01  6.67274E-04  1.40596E-07  1.11015E-12
       1.200600  9.93946E-02  8.99746E-01  7.50739E-04  1.75579E-07  1.49593E-12
       1.225613  9.94489E-02  8.99599E-01  8.41019E-04  2.17298E-07  1.99005E-12
       1.250625  9.95082E-02  8.99440E-01  9.38256E-04  2.66597E-07  2.61480E-12
       1.275638  9.95729E-02  8.99269E-01  1.04256E-03  3.24338E-07  3.39491E-12
       1.300650  9.96433E-02  8.99085E-01  1.15400E-03  3.91385E-07  4.35733E-12
       1.325663  9.97195E-02  8.98887E-01  1.27261E-03  4.68589E-07  5.53083E-12
       1.350675  9.98018E-02  8.98677E-01  1.39837E-03  5.56766E-07  6.94558E-12
       1.375688  9.98904E-02  8.98453E-01  1.53125E-03  6.56678E-07  8.63257E-12
       1.400700  9.99856E-02  8.98215E-01  1.67114E-03  7.69014E-07  1.06229E-11
       1.425713  1.00087E-01  8.97964E-01  1.81793E-03  8.94373E-07  1.29470E-11
       1.450725  1.00196E-01  8.97699E-01  1.97144E-03  1.03324E-06  1.56340E-11
       1.475738  1.00312E-01  8.97420E-01  2.13147E-03  1.18598E-06  1.87107E-11
       1.500750  1.00435E-01  8.97128E-01  2.29778E-03  1.35282E-06  2.22007E-11
       1.525763  1.00566E-01  8.96823E-01  2.47010E-03  1.53382E-06  2.61239E-11
       1.550775  1.00704E-01  8.96504E-01  2.64813E-03  1.72891E-06  3.04956E-11
       1.575788  1.00850E-01  8.96172E-01  2.83155E-03  1.93783E-06  3.53261E-11
       1.600800  1.01004E-01  8.95827E-01  3.01999E-03  2.16019E-06  4.06201E-11
       1.625813  1.01166E-01  8.95469E-01  3.21310E-03  2.39543E-06  4.63765E-11
       1.650825  1.01336E-01  8.95099E-01  3.41048E-03  2.64285E-06  5.25885E-11
       1.675838  1.01514E-01  8.94717E-01  3.61174E-03  2.90162E-06  5.92433E-11
       1.700850  1.01700E-01  8.94324E-01  3.81647E-03  3.17078E-06  6.63228E-11
       1.725863  1.01894E-01  8.93919E-01  4.02425E-03  3.44931E-06  7.38038E-11
       1.750875  1.02097E-01  8.93503E-01  4.23467E-03  3.73608E-06  8.16588E-11
       1.775888  1.02308E-01  8.93076E-01  4.44731E-03  4.02993E-06  8.98565E-11
       1.800900  1.02528E-01  8.92639E-01  4.66175E-03  4.32966E-06  9.83629E-11
       1.825913  1.02757E-01  8.92192E-01  4.87760E-03  4.63410E-06  1.07142E-10
       1.850925  1.02994E-01  8.91735E-01  5.09444E-03  4.94206E-06  1.16157E-10
       1.875938  1.03239E-01  8.91269E-01  5.31190E-03  5.25242E-06  1.25370E-10
       1.900950  1.03494E-01  8.90794E-01  5.52959E-03  5.56413E-06  1.34747E-10
       1.925963  1.03757E-01  8.90310E-01  5.74715E-03  5.87620E-06  1.44252E-10
       1.950975  1.04029E-01  8.89818E-01  5.96423E-03  6.18777E-06  1.53853E-10
       1.975988  1.04310E-01  8.89318E-01  6.18049E-03  6.49808E-06  1.63522E-10
       2.001001  1.04600E-01  8.88811E-01  6.39560E-03  6.80647E-06  1.73235E-10
       2.026013  1.04899E-01  8.88295E-01  6.60926E-03  7.11242E-06  1.82969E-10
       2.051026  1.05207E-01  8.87772E-01  6.82117E-03  7.41558E-06  1.92712E-10
       2.076038  1.05524E-01  8.87243E-01  7.03108E-03  7.71574E-06  2.02455E-10
       2.101051  1.05850E-01  8.86706E-01  7.23874E-03  8.01287E-06  2.12198E-10
       2.126063  1.06185E-01  8.86163E-01  7.44393E-03  8.30713E-06  2.21946E-10
       2.151076  1.06530E-01  8.85612E-01  7.64647E-03  8.59883E-06  2.31711E-10
       2.176088  1.06884E-01  8.85056E-01  7.84620E-03  8.88848E-06  2.41514E-10
       2.201101  1.07248E-01  8.84492E-01  8.04296E-03  9.17669E-06  2.51380E-10
       2.226113  1.07621E-01  8.83923E-01  8.23664E-03  9.46425E-06  2.61342E-10
       2.251126  1.08004E-01  8.83346E-01  8.42715E-03  9.75208E-06  2.71439E-10
       2.276138  1.08397E-01  8.82763E-01  8.61441E-03  1.00412E-05  2.81716E-10
       2.301151  1.08800E-01  8.82174E-01  8.79835E-03  1.03326E-05  2.92223E-10
       2.326163  1.09213E-01  8.81577E-01  8.97894E-03  1.06276E-05  3.03017E-10
       2.351176  1.09636E-01  8.80974E-01  9.15615E-03  1.09274E-05  3.14155E-10
       2.376188  1.10070E-01  8.80363E-01  9.32997E-03  1.12331E-05  3.25703E-10
       2.401201  1.10514E-01  8.79746E-01  9.50039E-03  1.15461E-05  3.37728E-10
       2.426213  1.10970E-01  8.79120E-01  9.66744E-03  1.18676E-05  3.50298E-10
       2.451226  1.11436E-01  8.78488E-01  9.83111E-03  1.21988E-05  3.63488E-10
       2.476238  1.11914E-01  8.77847E-01  9.99144E-03  1.25409E-05  3.77369E-10
       2.501251  1.12403E-01  8.77198E-01  1.01484E-02  1.28949E-05  3.92018E-10
       2.526263  1.12903E-01  8.76540E-01  1.03022E-02  1.32617E-05  4.07508E-10
       2.551276  1.13416E-01  8.75874E-01  1.04526E-02  1.36423E-05  4.23914E-10
       2.576288  1.13941E-01  8.75199E-01  1.05999E-02  1.40374E-05  4.41308E-10
       2.601301  1.14478E-01  8.74515E-01  1.07439E-02  1.44475E-05  4.59763E-10
       2.626313  1.15028E-01  8.73821E-01  1.08848E-02  1.48731E-05  4.79346E-10
       2.651326  1.15592E-01  8.73117E-01  1.10225E-02  1.53144E-05  5.00121E-10
       2.676338  1.16168E-01  8.72403E-01  1.11571E-02  1.57714E-05  5.22148E-10
       2.701351  1.16758E-01  8.71678E-01  1.12885E-02  1.62441E-05  5.45481E-10
       2.726363  1.17362E-01  8.70942E-01  1.14168E-02  1.67320E-05  5.70167E-10
       2.751376  1.17981E-01  8.70196E-01  1.15420E-02  1.72345E-05  5.96245E-10
       2.776388  1.18614E-01  8.69437E-01  1.16640E-02  1.77509E-05  6.23745E-10
       2.801401  1.19262E-01  8.68667E-01  1.17829E-02  1.82801E-05  6.52687E-10
       2.826413  1.19925E-01  8.67885E-01  1.18985E-02  1.88208E-05  6.83078E-10
       2.851426  1.20604E-01  8.67091E-01  1.20109E-02  1.93717E-05  7.14914E-10
       2.876438  1.21299E-01  8.66284E-01  1.21200E-02  1.99310E-05  7.48178E-10
       2.901451  1.22010E-01  8.65464E-01  1.22257E-02  2.04967E-05  7.82834E-10
       2.926463  1.22737E-01  8.64631E-01  1.23279E-02  2.10669E-05  8.18835E-10
       2.951476  1.23482E-01  8.63784E-01  1.24267E-02  2.16392E-05  8.56114E-10
       2.976488  1.24244E-01  8.62924E-01  1.25218E-02  2.22111E-05  8.94588E-10
       3.001501  1.25023E-01  8.62050E-01  1.26132E-02  2.27801E-05  9.34157E-10
       3.026513  1.25821E-01  8.61161E-01  1.27009E-02  2.33434E-05  9.74703E-10
       3.051526  1.26637E-01  8.60259E-01  1.27846E-02  2.38983E-05  1.01609E-09
       3.076538  1.27471E-01  8.59341E-01  1.28643E-02  2.44418E-05  1.05816E-09
       3.101551  1.28324E-01  8.58409E-01  1.29398E-02  2.49711E-05  1.10075E-09
       3.126563  1.29197E-01  8.57462E-01  1.30111E-02  2.54833E-05  1.14368E-09
       3.151576  1.30089E-01  8.56500E-01  1.30780E-02  2.59756E-05  1.18674E-09
       3.176588  1.31000E-01  8.55523E-01  1.31404E-02  2.64452E-05  1.22973E-09
       3.201601  1.31932E-01  8.54530E-01  1.31982E-02  2.68894E-05  1.27243E-09
       3.226613  1.32884E-01  8.53522E-01  1.32513E-02  2.73059E-05  1.31461E-09
       3.251626  1.33856E-01  8.52498E-01  1.32995E-02  2.76923E-05  1.35606E-09
       3.276638  1.34850E-01  8.51459E-01  1.33427E-02  2.80467E-05  1.39655E-09
       3.301651  1.35864E-01  8.50403E-01  1.33809E-02  2.83673E-05  1.43584E-09
       3.326663  1.36899E-01  8.49332E-01  1.34139E-02  2.86526E-05  1.47374E-09
       3.351676  1.37955E-01  8.48245E-01  1.34415E-02  2.89015E-05  1.51003E-09
       3.376688  1.39033E-01  8.47142E-01  1.34638E-02  2.91133E-05  1.54453E-09
       3.401701  1.40132E-01  8.46023E-01  1.34807E-02  2.92875E-05  1.57707E-09
       3.426713  1.41253E-01  8.44888E-01  1.34920E-02  2.94242E-05  1.60749E-09
       3.451726  1.42395E-01  8.43737E-01  1.34978E-02  2.95236E-05  1.63568E-09
       3.476738  1.43560E-01  8.42570E-01  1.34979E-02  2.95865E-05  1.66154E-09
       3.501751  1.44745E-01  8.41386E-01  1.34923E-02  2.96140E-05  1.68499E-09
       3.526763  1.45953E-01  8.40187E-01  1.34810E-02  2.96075E-05  1.70600E-09
       3.551776  1.47182E-01  8.38972E-01  1.34640E-02  2.95687E-05  1.72456E-09
       3.576788  1.48433E-01  8.37741E-01  1.34413E-02  2.94998E-05  1.74069E-09
       3.601801  1.49706E-01  8.36494E-01  1.34129E-02  2.94028E-05  1.75443E-09
       3.626813  1.51000E-01  8.35232E-01  1.33788E-02  2.92805E-05  1.76586E-09
       3.651826  1.52315E-01  8.33953E-01  1.33391E-02  2.91353E-05  1.77509E-09
       3.676838  1.53651E-01  8.32660E-01  1.32938E-02  2.89700E-05  1.78223E-09
       3.701851  1.55008E-01  8.31351E-01  1.32430E-02  2.87875E-05  1.78743E-09
       3.726863  1.56386E-01  8.30026E-01  1.31867E-02  2.85906E-05  1.79084E-09
       3.751876  1.57785E-01  8.28687E-01  1.31251E-02  2.83819E-05  1.79263E-09
       3.776888  1.59204E-01  8.27332E-01  1.30583E-02  2.81642E-05  1.79296E-09
       3.801901  1.60642E-01  8.25963E-01  1.29864E-02  2.79398E-05  1.79200E-09
       3.826913  1.62100E-01  8.24579E-01  1.29095E-02  2.77111E-05  1.78991E-09
       3.851926  1.63577E-01  8.23181E-01  1.28279E-02  2.74801E-05  1.78685E-09
       3.876938  1.65073E-01  8.21768E-01  1.27416E-02  2.72484E-05  1.78295E-09
       3.901951  1.66588E-01  8.20342E-01  1.26508E-02  2.70174E-05  1.77833E-09
       3.926963  1.68120E-01  8.18902E-01  1.25557E-02  2.67883E-05  1.77310E-09
       3.951976  1.69670E-01  8.17448E-01  1.24565E-02  2.65618E-05  1.76731E-09
       3.976988  1.71237E-01  8.15982E-01  1.23534E-02  2.63380E-05  1.76103E-09
       4.002001  1.72820E-01  8.14503E-01  1.22466E-02  2.61171E-05  1.75428E-09
       4.027014  1.74419E-01  8.13011E-01  1.21363E-02  2.58987E-05  1.74703E-09
       4.052026  1.76034E-01  8.11508E-01  1.20228E-02  2.56820E-05  1.73927E-09
       4.077039  1.77663E-01  8.09992E-01  1.19062E-02  2.54661E-05  1.73093E-09
       4.102051  1.79307E-01  8.08465E-01  1.17867E-02  2.52496E-05  1.72193E-09
       4.127064  1.80964E-01  8.06928E-01  1.16647E-02  2.50310E-05  1.71218E-09
       4.152076  1.82634E-01  8.05379E-01  1.15403E-02  2.48088E-05  1.70154E-09
       4.177089  1.84316E-01  8.03821E-01  1.14138E-02  2.45810E-05  1.68990E-09
       4.202101  1.86009E-01  8.02253E-01  1.12854E-02  2.43457E-05  1.67712E-09
       4.227114  1.87714E-01  8.00676E-01  1.11553E-02  2.41010E-05  1.66306E-09
       4.252126  1.89429E-01  7.99090E-01  1.10237E-02  2.38450E-05  1.64758E-09
       4.277139  1.91153E-01  7.97496E-01  1.08908E-02  2.35758E-05  1.63056E-09
       4.302151  1.92886E-01  7.95894E-01  1.07569E-02  2.32918E-05  1.61188E-09
       4.327164  1.94627E-01  7.94286E-01  1.06221E-02  2.29915E-05  1.59145E-09
       4.352176  1.96375E-01  7.92670E-01  1.04867E-02  2.26734E-05  1.56917E-09
       4.377189  1.98129E-01  7.91049E-01  1.03508E-02  2.23367E-05  1.54500E-09
       4.402201  1.99890E-01  7.89422E-01  1.02147E-02  2.19804E-05  1.51890E-09
       4.427214  2.01655E-01  7.87791E-01  1.00784E-02  2.16042E-05  1.49087E-09
       4.452226  2.03424E-01  7.86156E-01  9.94216E-03  2.12079E-05  1.46094E-09
       4.477239  2.05197E-01  7.84516E-01  9.80612E-03  2.07917E-05  1.42916E-09
       4.502251  2.06972E-01  7.82874E-01  9.67041E-03  2.03562E-05  1.39561E-09
       4.527264  2.08749E-01  7.81230E-01  9.53516E-03  1.99023E-05  1.36041E-09
       4.552276  2.10527E-01  7.79584E-01  9.40048E-03  1.94312E-05  1.32369E-09
       4.577289  2.12306E-01  7.77937E-01  9.26650E-03  1.89444E-05  1.28562E-09
       4.602301  2.14084E-01  7.76290E-01  9.13329E-03  1.84437E-05  1.24637E-09
       4.627314  2.15861E-01  7.74643E-01  9.00096E-03  1.79311E-05  1.20613E-09
       4.652326  2.17636E-01  7.72997E-01  8.86957E-03  1.74088E-05  1.16513E-09
       4.677339  2.19409E-01  7.71353E-01  8.73919E-03  1.68792E-05  1.12358E-09
       4.702351  2.21178E-01  7.69710E-01  8.60987E-03  1.63449E-05  1.08171E-09
       4.727364  2.22944E-01  7.68071E-01  8.48166E-03  1.58084E-05  1.03974E-09
       4.752376  2.24704E-01  7.66435E-01  8.35460E-03  1.52724E-05  9.97892E-10
       4.777389  2.26460E-01  7.64803E-01  8.22872E-03  1.47395E-05  9.56391E-10
       4.802401  2.28210E-01  7.63176E-01  8.10403E-03  1.42122E-05  9.15443E-10
       4.827414  2.29953E-01  7.61554E-01  7.98054E-03  1.36932E-05  8.75244E-10
       4.852426  2.31689E-01  7.59938E-01  7.85827E-03  1.31846E-05  8.35974E-10
       4.877439  2.33418E-01  7.58328E-01  7.73721E-03  1.26886E-05  7.97796E-10
       4.902451  2.35138E-01  7.56725E-01  7.61736E-03  1.22072E-05  7.60854E-10
       4.927464  2.36850E-01  7.55130E-01  7.49869E-03  1.17422E-05  7.25271E-10
       4.952476  2.38553E-01  7.53542E-01  7.38121E-03  1.12950E-05  6.91150E-10
       4.977489  2.40247E-01  7.51963E-01  7.26488E-03  1.08669E-05  6.58570E-10
       5.002501  2.41930E-01  7.50392E-01  7.14968E-03  1.04587E-05  6.27589E-10
       5.027514  2.43604E-01  7.48830E-01  7.03558E-03  1.00712E-05  5.98246E-10
       5.052526  2.45267E-01  7.47278E-01  6.92256E-03  9.70468E-06  5.70557E-10
       5.077539  2.46919E-01  7.45735E-01  6.81058E-03  9.35927E-06  5.44521E-10
       5.102551  2.48561E-01  7.44203E-01  6.69962E-03  9.03478E-06  5.20116E-10
       5.127564  2.50190E-01  7.42681E-01  6.58964E-03  8.73079E-06  4.97308E-10
       5.152576  2.51809E-01  7.41169E-01  6.48061E-03  8.44662E-06  4.76045E-10
       5.177589  2.53416E-01  7.39668E-01  6.37249E-03  8.18141E-06  4.56264E-10
       5.202601  2.55011E-01  7.38178E-01  6.26526E-03  7.93406E-06  4.37891E-10
       5.227614  2.56594E-01  7.36699E-01  6.15888E-03  7.70333E-06  4.20844E-10
       5.252626  2.58165E-01  7.35231E-01  6.05332E-03  7.48786E-06  4.05033E-10
       5.277639  2.59725E-01  7.33774E-01  5.94856E-03  7.28616E-06  3.90364E-10
       5.302651  2.61272E-01  7.32328E-01  5.84457E-03  7.09667E-06  3.76739E-10
       5.327664  2.62808E-01  7.30893E-01  5.74133E-03  6.91777E-06  3.64061E-10
       5.352676  2.64332E-01  7.29469E-01  5.63881E-03  6.74784E-06  3.52229E-10
       5.377689  2.65845E-01  7.28056E-01  5.53700E-03  6.58528E-06  3.41149E-10
       5.402701  2.67345E-01  7.26654E-01  5.43587E-03  6.42850E-06  3.30725E-10
       5.427714  2.68835E-01  7.25263E-01  5.33542E-03  6.27598E-06  3.20868E-10
       5.452726  2.70314E-01  7.23881E-01  5.23564E-03  6.12632E-06  3.11495E-10
       5.477739  2.71782E-01  7.22510E-01  5.13652E-03  5.97818E-06  3.02525E-10
       5.502751  2.73239E-01  7.21149E-01  5.03805E-03  5.83037E-06  2.93887E-10
       5.527764  2.74686E-01  7.19798E-01  4.94023E-03  5.68183E-06  2.85516E-10
       5.552776  2.76123E-01  7.18455E-01  4.84308E-03  5.53167E-06  2.77354E-10
       5.577789  2.77551E-01  7.17122E-01  4.74658E-03  5.37913E-06  2.69352E-10
       5.602801  2.78970E-01  7.15797E-01  4.65075E-03  5.22364E-06  2.61467E-10
       5.627814  2.80379E-01  7.14480E-01  4.55561E-03  5.06478E-06  2.53664E-10
       5.652826  2.81781E-01  7.13171E-01  4.46117E-03  4.90231E-06  2.45917E-10
       5.677839  2.83174E-01  7.11869E-01  4.36745E-03  4.73616E-06  2.38205E-10
       5.702851  2.84560E-01  7.10574E-01  4.27447E-03  4.56639E-06  2.30515E-10
       5.727864  2.85939E-01  7.09285E-01  4.18226E-03  4.39324E-06  2.22841E-10
       5.752876  2.87312E-01  7.08001E-01  4.09085E-03  4.21707E-06  2.15181E-10
       5.777889  2.88679E-01  7.06723E-01  4.00027E-03  4.03837E-06  2.07540E-10
       5.802901  2.90040E-01  7.05450E-01  3.91056E-03  3.85776E-06  1.99928E-10
       5.827914  2.91396E-01  7.04180E-01  3.82176E-03  3.67592E-06  1.92357E-10
       5.852926  2.92748E-01  7.02914E-01  3.73391E-03  3.49365E-06  1.84844E-10
       5.877939  2.94096E-01  7.01650E-01  3.64706E-03  3.31178E-06  1.77407E-10
       5.902951  2.95441E-01  7.00389E-01  3.56126E-03  3.13120E-06  1.70069E-10
       5.927964  2.96783E-01  6.99130E-01  3.47657E-03  2.95281E-06  1.62852E-10
       5.952976  2.98123E-01  6.97871E-01  3.39304E-03  2.77755E-06  1.55778E-10
       5.977989  2.99462E-01  6.96613E-01  3.31073E-03  2.60632E-06  1.48872E-10
       6.003002  3.00799E-01  6.95355E-01  3.22971E-03  2.43999E-06  1.42155E-10
       6.028014  3.02136E-01  6.94095E-01  3.15004E-03  2.27940E-06  1.35649E-10
       6.053027  3.03473E-01  6.92835E-01  3.07179E-03  2.12533E-06  1.29375E-10
       6.078039  3.04810E-01  6.91572E-01  2.99503E-03  1.97849E-06  1.23350E-10
