# population in each right-qubit level over  time for $\ket{\Psi(t=0)} = \ket{01}$ (integrated over all cavity levels)
#        t [ns]            0            1            2            3            4
       0.000000  8.00176E-02  9.19982E-01  2.98453E-30  1.77100E-31  1.44821E-33
       0.025013  8.00171E-02  9.19981E-01  2.98433E-30  1.76649E-31  3.11109E-34
       0.050025  8.00166E-02  9.19979E-01  2.98382E-30  1.75265E-31  1.03966E-34
       0.075038  8.00161E-02  9.19977E-01  2.98301E-30  1.72973E-31  8.62065E-35
       0.100050  8.00156E-02  9.19975E-01  2.98187E-30  1.69841E-31  9.82666E-35
       0.125063  8.00151E-02  9.19974E-01  2.98037E-30  1.65954E-31  1.09032E-34
       0.150075  8.00146E-02  9.19972E-01  2.97848E-30  1.61411E-31  1.14837E-34
       0.175088  8.00141E-02  9.19970E-01  2.97615E-30  1.56321E-31  1.16906E-34
       0.200100  8.00137E-02  9.19968E-01  2.97334E-30  1.50800E-31  1.16761E-34
       0.225113  8.00132E-02  9.19967E-01  2.97002E-30  1.44974E-31  1.15430E-34
       0.250125  8.00127E-02  9.19965E-01  2.96613E-30  1.38974E-31  1.13481E-34
       0.275138  8.00123E-02  9.19963E-01  2.96165E-30  1.32936E-31  1.11203E-34
       0.300150  8.00118E-02  9.19961E-01  2.95655E-30  1.26992E-31  1.08738E-34
       0.325163  8.00114E-02  9.19960E-01  2.95080E-30  1.21274E-31  1.06163E-34
       0.350175  8.00109E-02  9.19958E-01  2.94441E-30  1.15908E-31  1.03530E-34
       0.375188  8.00105E-02  9.19956E-01  2.93737E-30  1.11009E-31  1.00883E-34
       0.400200  8.00101E-02  9.19954E-01  2.92972E-30  1.06685E-31  9.82642E-35
       0.425213  8.00097E-02  9.19952E-01  2.92149E-30  1.03025E-31  9.57184E-35
       0.450225  8.00093E-02  9.19950E-01  2.91273E-30  1.00106E-31  9.32904E-35
       0.475238  8.00089E-02  9.19949E-01  2.90351E-30  9.79874E-32  9.10259E-35
       0.500250  8.00086E-02  9.19947E-01  2.89392E-30  9.67088E-32  8.89704E-35
       0.525263  8.00082E-02  9.19945E-01  2.88406E-30  9.62919E-32  8.71676E-35
       0.550275  8.00079E-02  9.19943E-01  2.87405E-30  9.67387E-32  8.56589E-35
       0.575288  8.00076E-02  9.19941E-01  2.86402E-30  9.80322E-32  8.44817E-35
       0.600300  8.00072E-02  9.19939E-01  2.85411E-30  1.00137E-31  8.36683E-35
       0.625313  8.00069E-02  9.19937E-01  2.84446E-30  1.02999E-31  8.32451E-35
       0.650325  8.00067E-02  9.19935E-01  2.83524E-30  1.06550E-31  8.32309E-35
       0.675338  8.00064E-02  9.19933E-01  2.82660E-30  1.10705E-31  8.36365E-35
       0.700350  8.00061E-02  9.19931E-01  2.81869E-30  1.15369E-31  8.44635E-35
       0.725363  8.00059E-02  9.19929E-01  2.81169E-30  1.20434E-31  8.57038E-35
       0.750375  8.00057E-02  9.19927E-01  2.80574E-30  1.25785E-31  8.73393E-35
       0.775388  8.00055E-02  9.19925E-01  2.80097E-30  1.31304E-31  8.93413E-35
       0.800400  8.00053E-02  9.19923E-01  2.79754E-30  1.36867E-31  9.16714E-35
       0.825413  8.00051E-02  9.19921E-01  2.79554E-30  1.42352E-31  9.42813E-35
       0.850425  8.00049E-02  9.19919E-01  2.79509E-30  1.47638E-31  9.71136E-35
       0.875438  8.00048E-02  9.19917E-01  2.79628E-30  1.52611E-31  1.00103E-34
       0.900450  8.00047E-02  9.19915E-01  2.79916E-30  1.57162E-31  1.03178E-34
       0.925463  8.00045E-02  9.19913E-01  2.80377E-30  1.61194E-31  1.06262E-34
       0.950475  8.00044E-02  9.19911E-01  2.81014E-30  1.64620E-31  1.09274E-34
       0.975488  8.00043E-02  9.19908E-01  2.81826E-30  1.67366E-31  1.12133E-34
       1.000500  8.00042E-02  9.19906E-01  2.82811E-30  1.69375E-31  1.14759E-34
       1.025513  8.00042E-02  9.19904E-01  2.83962E-30  1.70603E-31  1.17074E-34
       1.050525  8.00041E-02  9.19902E-01  2.85272E-30  1.71024E-31  1.19006E-34
       1.075538  8.00041E-02  9.19900E-01  2.86732E-30  1.70630E-31  1.20490E-34
       1.100550  8.00040E-02  9.19897E-01  2.88327E-30  1.69429E-31  1.21470E-34
       1.125563  8.00040E-02  9.19895E-01  2.90045E-30  1.67446E-31  1.21903E-34
       1.150575  8.00040E-02  9.19893E-01  2.91869E-30  1.64724E-31  1.21757E-34
       1.175588  8.00039E-02  9.19891E-01  2.93779E-30  1.61320E-31  1.21016E-34
       1.200600  8.00039E-02  9.19889E-01  2.95758E-30  1.57307E-31  1.19677E-34
       1.225613  8.00039E-02  9.19886E-01  2.97782E-30  1.52769E-31  1.17754E-34
       1.250625  8.00040E-02  9.19884E-01  2.99830E-30  1.47803E-31  1.15276E-34
       1.275638  8.00040E-02  9.19882E-01  3.01880E-30  1.42514E-31  1.12290E-34
       1.300650  8.00040E-02  9.19880E-01  3.03907E-30  1.37016E-31  1.08853E-34
       1.325663  8.00040E-02  9.19877E-01  3.05889E-30  1.31427E-31  1.05040E-34
       1.350675  8.00040E-02  9.19875E-01  3.07802E-30  1.25865E-31  1.00936E-34
       1.375688  8.00041E-02  9.19873E-01  3.09624E-30  1.20451E-31  9.66352E-35
       1.400700  8.00041E-02  9.19871E-01  3.11332E-30  1.15302E-31  9.22404E-35
       1.425713  8.00041E-02  9.19868E-01  3.12905E-30  1.10530E-31  8.78589E-35
       1.450725  8.00042E-02  9.19866E-01  3.14326E-30  1.06238E-31  8.36002E-35
       1.475738  8.00042E-02  9.19864E-01  3.15576E-30  1.02522E-31  7.95729E-35
       1.500750  8.00042E-02  9.19861E-01  3.16641E-30  9.94623E-32  7.58817E-35
       1.525763  8.00043E-02  9.19859E-01  3.17506E-30  9.71286E-32  7.26246E-35
       1.550775  8.00043E-02  9.19857E-01  3.18163E-30  9.55733E-32  6.98900E-35
       1.575788  8.00043E-02  9.19855E-01  3.18603E-30  9.48325E-32  6.77541E-35
       1.600800  8.00044E-02  9.19852E-01  3.18822E-30  9.49245E-32  6.62787E-35
       1.625813  8.00044E-02  9.19850E-01  3.18818E-30  9.58492E-32  6.55089E-35
       1.650825  8.00044E-02  9.19848E-01  3.18592E-30  9.75881E-32  6.54720E-35
       1.675838  8.00044E-02  9.19846E-01  3.18150E-30  1.00105E-31  6.61765E-35
       1.700850  8.00044E-02  9.19843E-01  3.17497E-30  1.03345E-31  6.76110E-35
       1.725863  8.00044E-02  9.19841E-01  3.16645E-30  1.07237E-31  6.97451E-35
       1.750875  8.00044E-02  9.19839E-01  3.15608E-30  1.11697E-31  7.25290E-35
       1.775888  8.00043E-02  9.19837E-01  3.14400E-30  1.16623E-31  7.58956E-35
       1.800900  8.00043E-02  9.19835E-01  3.13039E-30  1.21907E-31  7.97612E-35
       1.825913  8.00043E-02  9.19832E-01  3.11547E-30  1.27429E-31  8.40284E-35
       1.850925  8.00042E-02  9.19830E-01  3.09946E-30  1.33063E-31  8.85881E-35
       1.875938  8.00041E-02  9.19828E-01  3.08258E-30  1.38680E-31  9.33227E-35
       1.900950  8.00041E-02  9.19826E-01  3.06508E-30  1.44152E-31  9.81088E-35
       1.925963  8.00040E-02  9.19824E-01  3.04721E-30  1.49350E-31  1.02821E-34
       1.950975  8.00039E-02  9.19822E-01  3.02924E-30  1.54155E-31  1.07335E-34
       1.975988  8.00038E-02  9.19819E-01  3.01141E-30  1.58451E-31  1.11532E-34
       2.001001  8.00036E-02  9.19817E-01  2.99397E-30  1.62137E-31  1.15299E-34
       2.026013  8.00035E-02  9.19815E-01  2.97716E-30  1.65123E-31  1.18536E-34
       2.051026  8.00034E-02  9.19813E-01  2.96120E-30  1.67337E-31  1.21156E-34
       2.076038  8.00032E-02  9.19811E-01  2.94631E-30  1.68720E-31  1.23088E-34
       2.101051  8.00030E-02  9.19809E-01  2.93268E-30  1.69236E-31  1.24281E-34
       2.126063  8.00028E-02  9.19807E-01  2.92047E-30  1.68867E-31  1.24701E-34
       2.151076  8.00026E-02  9.19805E-01  2.90984E-30  1.67614E-31  1.24336E-34
       2.176088  8.00024E-02  9.19803E-01  2.90089E-30  1.65502E-31  1.23195E-34
       2.201101  8.00022E-02  9.19801E-01  2.89371E-30  1.62573E-31  1.21307E-34
       2.226113  8.00019E-02  9.19799E-01  2.88838E-30  1.58888E-31  1.18723E-34
       2.251126  8.00017E-02  9.19797E-01  2.88492E-30  1.54529E-31  1.15509E-34
       2.276138  8.00014E-02  9.19795E-01  2.88335E-30  1.49591E-31  1.11751E-34
       2.301151  8.00011E-02  9.19793E-01  2.88363E-30  1.44185E-31  1.07548E-34
       2.326163  8.00008E-02  9.19791E-01  2.88574E-30  1.38431E-31  1.03009E-34
       2.351176  8.00005E-02  9.19789E-01  2.88960E-30  1.32461E-31  9.82550E-35
       2.376188  8.00002E-02  9.19787E-01  2.89511E-30  1.26411E-31  9.34085E-35
       2.401201  7.99999E-02  9.19785E-01  2.90218E-30  1.20419E-31  8.85960E-35
       2.426213  7.99996E-02  9.19783E-01  2.91068E-30  1.14625E-31  8.39416E-35
       2.451226  7.99992E-02  9.19781E-01  2.92048E-30  1.09161E-31  7.95646E-35
       2.476238  7.99989E-02  9.19780E-01  2.93142E-30  1.04156E-31  7.55758E-35
       2.501251  7.99985E-02  9.19778E-01  2.94336E-30  9.97260E-32  7.20750E-35
       2.526263  7.99981E-02  9.19776E-01  2.95615E-30  9.59756E-32  6.91481E-35
       2.551276  7.99977E-02  9.19774E-01  2.96963E-30  9.29934E-32  6.68648E-35
       2.576288  7.99973E-02  9.19772E-01  2.98365E-30  9.08503E-32  6.52772E-35
       2.601301  7.99969E-02  9.19770E-01  2.99806E-30  8.95980E-32  6.44184E-35
       2.626313  7.99965E-02  9.19768E-01  3.01274E-30  8.92673E-32  6.43016E-35
       2.651326  7.99961E-02  9.19767E-01  3.02755E-30  8.98675E-32  6.49204E-35
       2.676338  7.99957E-02  9.19765E-01  3.04239E-30  9.13862E-32  6.62491E-35
       2.701351  7.99953E-02  9.19763E-01  3.05714E-30  9.37892E-32  6.82432E-35
       2.726363  7.99949E-02  9.19761E-01  3.07173E-30  9.70215E-32  7.08417E-35
       2.751376  7.99945E-02  9.19759E-01  3.08608E-30  1.01009E-31  7.39684E-35
       2.776388  7.99941E-02  9.19757E-01  3.10013E-30  1.05658E-31  7.75342E-35
       2.801401  7.99936E-02  9.19756E-01  3.11382E-30  1.10861E-31  8.14403E-35
       2.826413  7.99932E-02  9.19754E-01  3.12713E-30  1.16497E-31  8.55802E-35
       2.851426  7.99928E-02  9.19752E-01  3.14003E-30  1.22434E-31  8.98436E-35
       2.876438  7.99924E-02  9.19750E-01  3.15249E-30  1.28534E-31  9.41187E-35
       2.901451  7.99919E-02  9.19748E-01  3.16450E-30  1.34654E-31  9.82958E-35
       2.926463  7.99915E-02  9.19747E-01  3.17606E-30  1.40652E-31  1.02270E-34
       2.951476  7.99911E-02  9.19745E-01  3.18715E-30  1.46388E-31  1.05944E-34
       2.976488  7.99907E-02  9.19743E-01  3.19776E-30  1.51729E-31  1.09229E-34
       3.001501  7.99903E-02  9.19741E-01  3.20789E-30  1.56552E-31  1.12051E-34
       3.026513  7.99899E-02  9.19739E-01  3.21751E-30  1.60747E-31  1.14348E-34
       3.051526  7.99895E-02  9.19737E-01  3.22661E-30  1.64218E-31  1.16074E-34
       3.076538  7.99892E-02  9.19735E-01  3.23514E-30  1.66888E-31  1.17197E-34
       3.101551  7.99888E-02  9.19734E-01  3.24308E-30  1.68696E-31  1.17705E-34
       3.126563  7.99884E-02  9.19732E-01  3.25037E-30  1.69607E-31  1.17598E-34
       3.151576  7.99881E-02  9.19730E-01  3.25694E-30  1.69602E-31  1.16895E-34
       3.176588  7.99877E-02  9.19728E-01  3.26275E-30  1.68686E-31  1.15629E-34
       3.201601  7.99874E-02  9.19726E-01  3.26769E-30  1.66887E-31  1.13845E-34
       3.226613  7.99871E-02  9.19724E-01  3.27171E-30  1.64250E-31  1.11601E-34
       3.251626  7.99868E-02  9.19722E-01  3.27470E-30  1.60841E-31  1.08965E-34
       3.276638  7.99865E-02  9.19720E-01  3.27657E-30  1.56743E-31  1.06013E-34
       3.301651  7.99862E-02  9.19718E-01  3.27723E-30  1.52054E-31  1.02826E-34
       3.326663  7.99859E-02  9.19716E-01  3.27660E-30  1.46886E-31  9.94869E-35
       3.351676  7.99857E-02  9.19714E-01  3.27459E-30  1.41358E-31  9.60812E-35
       3.376688  7.99854E-02  9.19712E-01  3.27112E-30  1.35599E-31  9.26920E-35
       3.401701  7.99852E-02  9.19710E-01  3.26612E-30  1.29738E-31  8.93991E-35
       3.426713  7.99850E-02  9.19708E-01  3.25955E-30  1.23908E-31  8.62767E-35
       3.451726  7.99848E-02  9.19706E-01  3.25137E-30  1.18238E-31  8.33916E-35
       3.476738  7.99846E-02  9.19704E-01  3.24155E-30  1.12851E-31  8.08023E-35
       3.501751  7.99845E-02  9.19702E-01  3.23010E-30  1.07862E-31  7.85571E-35
       3.526763  7.99843E-02  9.19700E-01  3.21705E-30  1.03375E-31  7.66942E-35
       3.551776  7.99842E-02  9.19698E-01  3.20244E-30  9.94823E-32  7.52405E-35
       3.576788  7.99840E-02  9.19696E-01  3.18634E-30  9.62599E-32  7.42119E-35
       3.601801  7.99839E-02  9.19694E-01  3.16884E-30  9.37679E-32  7.36134E-35
       3.626813  7.99838E-02  9.19692E-01  3.15006E-30  9.20493E-32  7.34397E-35
       3.651826  7.99838E-02  9.19689E-01  3.13013E-30  9.11290E-32  7.36754E-35
       3.676838  7.99837E-02  9.19687E-01  3.10922E-30  9.10142E-32  7.42968E-35
       3.701851  7.99837E-02  9.19685E-01  3.08749E-30  9.16940E-32  7.52722E-35
       3.726863  7.99836E-02  9.19683E-01  3.06515E-30  9.31405E-32  7.65640E-35
       3.751876  7.99836E-02  9.19681E-01  3.04239E-30  9.53098E-32  7.81292E-35
       3.776888  7.99836E-02  9.19678E-01  3.01943E-30  9.81430E-32  7.99214E-35
       3.801901  7.99836E-02  9.19676E-01  2.99650E-30  1.01568E-31  8.18921E-35
       3.826913  7.99836E-02  9.19674E-01  2.97382E-30  1.05502E-31  8.39917E-35
       3.851926  7.99836E-02  9.19672E-01  2.95162E-30  1.09851E-31  8.61709E-35
       3.876938  7.99837E-02  9.19669E-01  2.93013E-30  1.14515E-31  8.83823E-35
       3.901951  7.99837E-02  9.19667E-01  2.90957E-30  1.19390E-31  9.05803E-35
       3.926963  7.99838E-02  9.19665E-01  2.89015E-30  1.24367E-31  9.27232E-35
       3.951976  7.99839E-02  9.19662E-01  2.87207E-30  1.29337E-31  9.47725E-35
       3.976988  7.99840E-02  9.19660E-01  2.85551E-30  1.34195E-31  9.66947E-35
       4.002001  7.99840E-02  9.19658E-01  2.84066E-30  1.38835E-31  9.84602E-35
       4.027014  7.99841E-02  9.19655E-01  2.82765E-30  1.43161E-31  1.00045E-34
       4.052026  7.99843E-02  9.19653E-01  2.81662E-30  1.47082E-31  1.01428E-34
       4.077039  7.99844E-02  9.19651E-01  2.80767E-30  1.50516E-31  1.02595E-34
       4.102051  7.99845E-02  9.19648E-01  2.80089E-30  1.53394E-31  1.03534E-34
       4.127064  7.99846E-02  9.19646E-01  2.79633E-30  1.55655E-31  1.04238E-34
       4.152076  7.99847E-02  9.19644E-01  2.79403E-30  1.57254E-31  1.04703E-34
       4.177089  7.99849E-02  9.19641E-01  2.79400E-30  1.58158E-31  1.04928E-34
       4.202101  7.99850E-02  9.19639E-01  2.79620E-30  1.58347E-31  1.04915E-34
       4.227114  7.99851E-02  9.19637E-01  2.80060E-30  1.57818E-31  1.04668E-34
       4.252126  7.99853E-02  9.19634E-01  2.80712E-30  1.56580E-31  1.04193E-34
       4.277139  7.99854E-02  9.19632E-01  2.81566E-30  1.54658E-31  1.03498E-34
       4.302151  7.99856E-02  9.19629E-01  2.82610E-30  1.52089E-31  1.02592E-34
       4.327164  7.99857E-02  9.19627E-01  2.83831E-30  1.48925E-31  1.01487E-34
       4.352176  7.99858E-02  9.19625E-01  2.85210E-30  1.45228E-31  1.00193E-34
       4.377189  7.99860E-02  9.19622E-01  2.86730E-30  1.41073E-31  9.87243E-35
       4.402201  7.99861E-02  9.19620E-01  2.88370E-30  1.36544E-31  9.70963E-35
       4.427214  7.99862E-02  9.19618E-01  2.90108E-30  1.31733E-31  9.53257E-35
       4.452226  7.99863E-02  9.19615E-01  2.91922E-30  1.26738E-31  9.34308E-35
       4.477239  7.99864E-02  9.19613E-01  2.93787E-30  1.21662E-31  9.14323E-35
       4.502251  7.99865E-02  9.19611E-01  2.95680E-30  1.16610E-31  8.93529E-35
       4.527264  7.99866E-02  9.19608E-01  2.97574E-30  1.11688E-31  8.72176E-35
       4.552276  7.99867E-02  9.19606E-01  2.99445E-30  1.06999E-31  8.50536E-35
       4.577289  7.99868E-02  9.19604E-01  3.01269E-30  1.02644E-31  8.28905E-35
       4.602301  7.99869E-02  9.19601E-01  3.03022E-30  9.87145E-32  8.07597E-35
       4.627314  7.99870E-02  9.19599E-01  3.04682E-30  9.52974E-32  7.86945E-35
       4.652326  7.99870E-02  9.19597E-01  3.06226E-30  9.24670E-32  7.67295E-35
       4.677339  7.99870E-02  9.19594E-01  3.07635E-30  9.02864E-32  7.48999E-35
       4.702351  7.99871E-02  9.19592E-01  3.08892E-30  8.88049E-32  7.32413E-35
       4.727364  7.99871E-02  9.19590E-01  3.09982E-30  8.80571E-32  7.17884E-35
       4.752376  7.99871E-02  9.19588E-01  3.10891E-30  8.80616E-32  7.05742E-35
       4.777389  7.99871E-02  9.19585E-01  3.11610E-30  8.88205E-32  6.96294E-35
       4.802401  7.99871E-02  9.19583E-01  3.12131E-30  9.03192E-32  6.89811E-35
       4.827414  7.99870E-02  9.19581E-01  3.12449E-30  9.25263E-32  6.86516E-35
       4.852426  7.99870E-02  9.19579E-01  3.12565E-30  9.53942E-32  6.86580E-35
       4.877439  7.99869E-02  9.19577E-01  3.12479E-30  9.88600E-32  6.90107E-35
       4.902451  7.99869E-02  9.19574E-01  3.12195E-30  1.02847E-31  6.97132E-35
       4.927464  7.99868E-02  9.19572E-01  3.11721E-30  1.07265E-31  7.07607E-35
       4.952476  7.99867E-02  9.19570E-01  3.11067E-30  1.12014E-31  7.21404E-35
       4.977489  7.99866E-02  9.19568E-01  3.10244E-30  1.16986E-31  7.38306E-35
       5.002501  7.99864E-02  9.19566E-01  3.09268E-30  1.22066E-31  7.58010E-35
       5.027514  7.99863E-02  9.19564E-01  3.08152E-30  1.27138E-31  7.80132E-35
       5.052526  7.99861E-02  9.19562E-01  3.06916E-30  1.32082E-31  8.04203E-35
       5.077539  7.99859E-02  9.19560E-01  3.05578E-30  1.36783E-31  8.29688E-35
       5.102551  7.99858E-02  9.19558E-01  3.04156E-30  1.41131E-31  8.55988E-35
       5.127564  7.99856E-02  9.19556E-01  3.02671E-30  1.45021E-31  8.82456E-35
       5.152576  7.99853E-02  9.19554E-01  3.01141E-30  1.48361E-31  9.08411E-35
       5.177589  7.99851E-02  9.19552E-01  2.99587E-30  1.51070E-31  9.33157E-35
       5.202601  7.99849E-02  9.19550E-01  2.98026E-30  1.53082E-31  9.55997E-35
       5.227614  7.99846E-02  9.19548E-01  2.96476E-30  1.54347E-31  9.76258E-35
       5.252626  7.99844E-02  9.19546E-01  2.94953E-30  1.54832E-31  9.93305E-35
       5.277639  7.99841E-02  9.19544E-01  2.93472E-30  1.54523E-31  1.00656E-34
       5.302651  7.99838E-02  9.19542E-01  2.92046E-30  1.53423E-31  1.01553E-34
       5.327664  7.99835E-02  9.19540E-01  2.90687E-30  1.51555E-31  1.01982E-34
       5.352676  7.99832E-02  9.19538E-01  2.89403E-30  1.48961E-31  1.01913E-34
       5.377689  7.99829E-02  9.19536E-01  2.88203E-30  1.45697E-31  1.01328E-34
       5.402701  7.99826E-02  9.19534E-01  2.87092E-30  1.41838E-31  1.00226E-34
       5.427714  7.99822E-02  9.19532E-01  2.86074E-30  1.37472E-31  9.86152E-35
       5.452726  7.99819E-02  9.19530E-01  2.85151E-30  1.32699E-31  9.65206E-35
       5.477739  7.99815E-02  9.19528E-01  2.84322E-30  1.27629E-31  9.39801E-35
       5.502751  7.99812E-02  9.19526E-01  2.83588E-30  1.22379E-31  9.10450E-35
       5.527764  7.99808E-02  9.19524E-01  2.82944E-30  1.17071E-31  8.77791E-35
       5.552776  7.99805E-02  9.19523E-01  2.82389E-30  1.11828E-31  8.42570E-35
       5.577789  7.99801E-02  9.19521E-01  2.81917E-30  1.06772E-31  8.05624E-35
       5.602801  7.99797E-02  9.19519E-01  2.81524E-30  1.02020E-31  7.67862E-35
       5.627814  7.99794E-02  9.19517E-01  2.81203E-30  9.76842E-32  7.30242E-35
       5.652826  7.99790E-02  9.19515E-01  2.80950E-30  9.38642E-32  6.93746E-35
       5.677839  7.99786E-02  9.19513E-01  2.80758E-30  9.06496E-32  6.59349E-35
       5.702851  7.99782E-02  9.19511E-01  2.80623E-30  8.81154E-32  6.27999E-35
       5.727864  7.99779E-02  9.19510E-01  2.80539E-30  8.63207E-32  6.00585E-35
       5.752876  7.99775E-02  9.19508E-01  2.80501E-30  8.53075E-32  5.77912E-35
       5.777889  7.99771E-02  9.19506E-01  2.80507E-30  8.50994E-32  5.60677E-35
       5.802901  7.99768E-02  9.19504E-01  2.80552E-30  8.57011E-32  5.49448E-35
       5.827914  7.99764E-02  9.19502E-01  2.80635E-30  8.70986E-32  5.44645E-35
       5.852926  7.99760E-02  9.19500E-01  2.80755E-30  8.92592E-32  5.46524E-35
       5.877939  7.99757E-02  9.19498E-01  2.80909E-30  9.21323E-32  5.55170E-35
       5.902951  7.99753E-02  9.19496E-01  2.81099E-30  9.56508E-32  5.70487E-35
       5.927964  7.99750E-02  9.19494E-01  2.81324E-30  9.97325E-32  5.92202E-35
       5.952976  7.99747E-02  9.19493E-01  2.81587E-30  1.04282E-31  6.19865E-35
       5.977989  7.99744E-02  9.19491E-01  2.81888E-30  1.09194E-31  6.52861E-35
       6.003002  7.99740E-02  9.19489E-01  2.82229E-30  1.14353E-31  6.90426E-35
       6.028014  7.99737E-02  9.19487E-01  2.82613E-30  1.19639E-31  7.31661E-35
       6.053027  7.99734E-02  9.19485E-01  2.83039E-30  1.24930E-31  7.75560E-35
       6.078039  7.99731E-02  9.19483E-01  2.83510E-30  1.30104E-31  8.21033E-35
