# population in each cavity level over  time for $\ket{\Psi(t=0)} = \ket{00}$ (integrated over all qubit levels)
#        t [ns]            0            1            2            3            4            5
       0.000000  1.00000E+00  0.00000E+00  0.00000E+00  0.00000E+00  0.00000E+00  0.00000E+00
       0.025013  1.00000E+00  5.27068E-10  1.38900E-19  2.44032E-29  3.21553E-39  2.64272E-49
       0.050025  1.00000E+00  5.07505E-08  1.28781E-15  2.17856E-23  2.76407E-31  2.12812E-39
       0.075038  9.99999E-01  5.99975E-07  1.79985E-13  3.59955E-20  5.39911E-27  4.58309E-34
       0.100050  9.99997E-01  3.33023E-06  5.54525E-12  6.15567E-18  5.12498E-24  2.23991E-30
       0.125063  9.99988E-01  1.23573E-05  7.63530E-11  3.14511E-16  9.71642E-22  1.45932E-27
       0.150075  9.99964E-01  3.56248E-05  6.34588E-10  7.53596E-15  6.71195E-20  2.69021E-25
       0.175088  9.99914E-01  8.63102E-05  3.72505E-09  1.07179E-13  2.31288E-18  2.07930E-23
       0.200100  9.99816E-01  1.84066E-04  1.69432E-08  1.03975E-12  4.78550E-17  8.49740E-22
       0.225113  9.99644E-01  3.55925E-04  6.33640E-08  7.52030E-12  6.69429E-16  2.12983E-20
       0.250125  9.99363E-01  6.36730E-04  2.02841E-07  4.30792E-11  6.86229E-15  3.62093E-19
       0.275138  9.98930E-01  1.06894E-03  5.71927E-07  2.04003E-10  5.45820E-14  4.48448E-18
       0.300150  9.98297E-01  1.70176E-03  1.45046E-06  8.24180E-10  3.51310E-13  4.26366E-17
       0.325163  9.97407E-01  2.58950E-03  3.36148E-06  2.90907E-09  1.88878E-12  3.23750E-16
       0.350175  9.96203E-01  3.78927E-03  7.20664E-06  9.13732E-09  8.69334E-12  2.02422E-15
       0.375188  9.94628E-01  5.35790E-03  1.44311E-05  2.59126E-08  3.49227E-11  1.06749E-14
       0.400200  9.92624E-01  7.34847E-03  2.72006E-05  6.71226E-08  1.24359E-10  4.84023E-14
       0.425213  9.90145E-01  9.80644E-03  4.85617E-05  1.60319E-07  3.97525E-10  1.91659E-13
       0.450225  9.87151E-01  1.27658E-02  8.25431E-05  3.55813E-07  1.15255E-09  6.71258E-13
       0.475238  9.83619E-01  1.62453E-02  1.34152E-04  7.38543E-07  3.05702E-09  2.10154E-12
       0.500250  9.79543E-01  2.02456E-02  2.09222E-04  1.44142E-06  7.47141E-09  5.93339E-12
       0.525263  9.74936E-01  2.47467E-02  3.14072E-04  2.65733E-06  1.69282E-08  1.52201E-11
       0.550275  9.69832E-01  2.97073E-02  4.54987E-04  4.64557E-06  3.57412E-08  3.56962E-11
       0.575288  9.64289E-01  3.50642E-02  6.37517E-04  7.72721E-06  7.06310E-08  7.69618E-11
       0.600300  9.58386E-01  4.07347E-02  8.65683E-04  1.22647E-05  1.31142E-07  1.53258E-10
       0.625313  9.52220E-01  4.66185E-02  1.14117E-03  1.86228E-05  2.29528E-07  2.83056E-10
       0.650325  9.45906E-01  5.26019E-02  1.46260E-03  2.71118E-05  3.79776E-07  4.86703E-10
       0.675338  9.39571E-01  5.85627E-02  1.82508E-03  3.79195E-05  5.95548E-07  7.81856E-10
       0.700350  9.33349E-01  6.43753E-02  2.22006E-03  5.10435E-05  8.87124E-07  1.17747E-09
       0.725363  9.27377E-01  6.99161E-02  2.63554E-03  6.62386E-05  1.25782E-06  1.66818E-09
       0.750375  9.21785E-01  7.50690E-02  3.05677E-03  8.29934E-05  1.70073E-06  2.23150E-09
       0.775388  9.16695E-01  7.97300E-02  3.46728E-03  1.00548E-04  2.19690E-06  2.82971E-09
       0.800400  9.12213E-01  8.38106E-02  3.85011E-03  1.17954E-04  2.71569E-06  3.41639E-09
       0.825413  9.08425E-01  8.72415E-02  4.18918E-03  1.34171E-04  3.21788E-06  3.94567E-09
       0.850425  9.05397E-01  8.99730E-02  4.47052E-03  1.48183E-04  3.66094E-06  4.38070E-09
       0.875438  9.03169E-01  9.19761E-02  4.68334E-03  1.59113E-04  4.00550E-06  4.69851E-09
       0.900450  9.01758E-01  9.32413E-02  4.82064E-03  1.66322E-04  4.22151E-06  4.88996E-09
       0.925463  9.01160E-01  9.37771E-02  4.87950E-03  1.69463E-04  4.29255E-06  4.95624E-09
       0.950475  9.01348E-01  9.36076E-02  4.86094E-03  1.68505E-04  4.21770E-06  4.90435E-09
       0.975488  9.02281E-01  9.27698E-02  4.76948E-03  1.63705E-04  4.01051E-06  4.74389E-09
       1.000500  9.03905E-01  9.13111E-02  4.61251E-03  1.55556E-04  3.69577E-06  4.48614E-09
       1.025513  9.06153E-01  8.92863E-02  4.39945E-03  1.44715E-04  3.30503E-06  4.14497E-09
       1.050525  9.08954E-01  8.67560E-02  4.14103E-03  1.31926E-04  2.87186E-06  3.73798E-09
       1.075538  9.12232E-01  8.37841E-02  3.84853E-03  1.17946E-04  2.42772E-06  3.28672E-09
       1.100550  9.15909E-01  8.04366E-02  3.53317E-03  1.03488E-04  1.99897E-06  2.81554E-09
       1.125563  9.19907E-01  7.67804E-02  3.20557E-03  8.91740E-05  1.60521E-06  2.34903E-09
       1.150575  9.24149E-01  7.28824E-02  2.87540E-03  7.55115E-05  1.25887E-06  1.90923E-09
       1.175588  9.28559E-01  6.88088E-02  2.55110E-03  6.28778E-05  9.65752E-07  1.51316E-09
       1.200600  9.33066E-01  6.46239E-02  2.23970E-03  5.15226E-05  7.26233E-07  1.17146E-09
       1.225613  9.37602E-01  6.03902E-02  1.94673E-03  4.15778E-05  5.36712E-07  8.88197E-10
       1.250625  9.42105E-01  5.61665E-02  1.67626E-03  3.30751E-05  3.91125E-07  6.61848E-10
       1.275638  9.46515E-01  5.20080E-02  1.43089E-03  2.59664E-05  2.82256E-07  4.86806E-10
       1.300650  9.50783E-01  4.79645E-02  1.21195E-03  2.01459E-05  2.02769E-07  3.55177E-10
       1.325663  9.54864E-01  4.40801E-02  1.01959E-03  1.54720E-05  1.45905E-07  2.58359E-10
       1.350675  9.58722E-01  4.03921E-02  8.53028E-04  1.17854E-05  1.05873E-07  1.88220E-10
       1.375688  9.62328E-01  3.69306E-02  7.10764E-04  8.92436E-06  7.79922E-08  1.37791E-10
       1.400700  9.65663E-01  3.37180E-02  5.90773E-04  6.73578E-06  5.86659E-08  1.01538E-10
       1.425713  9.68713E-01  3.07691E-02  4.90727E-04  5.08234E-06  4.52407E-08  7.53206E-11
       1.450725  9.71474E-01  2.80917E-02  4.08171E-04  3.84608E-06  3.58299E-08  5.61814E-11
       1.475738  9.73947E-01  2.56865E-02  3.40673E-04  2.92928E-06  2.91309E-08  4.20719E-11
       1.500750  9.76140E-01  2.35487E-02  2.85928E-04  2.25352E-06  2.42652E-08  3.15937E-11
       1.525763  9.78065E-01  2.16685E-02  2.41836E-04  1.75750E-06  2.06492E-08  2.37877E-11
       1.550775  9.79736E-01  2.00324E-02  2.06541E-04  1.39437E-06  1.78974E-08  1.79823E-11
       1.575788  9.81173E-01  1.86243E-02  1.78446E-04  1.12902E-06  1.57548E-08  1.36918E-11
       1.600800  9.82393E-01  1.74263E-02  1.56206E-04  9.35536E-07  1.40499E-08  1.05531E-11
       1.625813  9.83417E-01  1.64199E-02  1.38714E-04  7.95020E-07  1.26645E-08  8.28777E-12
       1.650825  9.84264E-01  1.55865E-02  1.25068E-04  6.93849E-07  1.15144E-08  6.67779E-12
       1.675838  9.84952E-01  1.49082E-02  1.14548E-04  6.22261E-07  1.05374E-08  5.55112E-12
       1.700850  9.85500E-01  1.43680E-02  1.06584E-04  5.73311E-07  9.68571E-09  4.77098E-12
       1.725863  9.85924E-01  1.39502E-02  1.00727E-04  5.42070E-07  8.92201E-09  4.22834E-12
       1.750875  9.86238E-01  1.36404E-02  9.66288E-05  5.25050E-07  8.21728E-09  3.83638E-12
       1.775888  9.86455E-01  1.34256E-02  9.40192E-05  5.19772E-07  7.55013E-09  3.52695E-12
       1.800900  9.86588E-01  1.32941E-02  9.26880E-05  5.24463E-07  6.90704E-09  3.24868E-12
       1.825913  9.86646E-01  1.32354E-02  9.24709E-05  5.37830E-07  6.28319E-09  2.96682E-12
       1.850925  9.86641E-01  1.32398E-02  9.32375E-05  5.58891E-07  5.68319E-09  2.66408E-12
       1.875938  9.86580E-01  1.32988E-02  9.48811E-05  5.86866E-07  5.12153E-09  2.34181E-12
       1.900950  9.86472E-01  1.34041E-02  9.73109E-05  6.21086E-07  4.62220E-09  2.02054E-12
       1.925963  9.86324E-01  1.35485E-02  1.00446E-04  6.60943E-07  4.21722E-09  1.73869E-12
       1.950975  9.86144E-01  1.37247E-02  1.04208E-04  7.05849E-07  3.94400E-09  1.54892E-12
       1.975988  9.85938E-01  1.39261E-02  1.08521E-04  7.55222E-07  3.84148E-09  1.51159E-12
       2.001001  9.85713E-01  1.41465E-02  1.13307E-04  8.08474E-07  3.94555E-09  1.68603E-12
       2.026013  9.85474E-01  1.43798E-02  1.18487E-04  8.65034E-07  4.28436E-09  2.12076E-12
       2.051026  9.85227E-01  1.46213E-02  1.23988E-04  9.24442E-07  4.87452E-09  2.84528E-12
       2.076038  9.84976E-01  1.48663E-02  1.29738E-04  9.86288E-07  5.71773E-09  3.86258E-12
       2.101051  9.84725E-01  1.51110E-02  1.35666E-04  1.05021E-06  6.79889E-09  5.14600E-12
       2.126063  9.84478E-01  1.53520E-02  1.41701E-04  1.11591E-06  8.08602E-09  6.63983E-12
       2.151076  9.84237E-01  1.55862E-02  1.47778E-04  1.18314E-06  9.53195E-09  8.26385E-12
       2.176088  9.84006E-01  1.58114E-02  1.53832E-04  1.25169E-06  1.10776E-08  9.92104E-12
       2.201101  9.83785E-01  1.60256E-02  1.59810E-04  1.32143E-06  1.26563E-08  1.15075E-11
       2.226113  9.83577E-01  1.62277E-02  1.65665E-04  1.39226E-06  1.41992E-08  1.29231E-11
       2.251126  9.83382E-01  1.64170E-02  1.71358E-04  1.46413E-06  1.56402E-08  1.40811E-11
       2.276138  9.83199E-01  1.65933E-02  1.76865E-04  1.53703E-06  1.69212E-08  1.49158E-11
       2.301151  9.83030E-01  1.67571E-02  1.82169E-04  1.61099E-06  1.79952E-08  1.53875E-11
       2.326163  9.82872E-01  1.69093E-02  1.87267E-04  1.68607E-06  1.88298E-08  1.54838E-11
       2.351176  9.82725E-01  1.70511E-02  1.92165E-04  1.76235E-06  1.94085E-08  1.52186E-11
       2.376188  9.82587E-01  1.71842E-02  1.96880E-04  1.83997E-06  1.97306E-08  1.46283E-11
       2.401201  9.82456E-01  1.73105E-02  2.01435E-04  1.91907E-06  1.98104E-08  1.37666E-11
       2.426213  9.82330E-01  1.74321E-02  2.05864E-04  1.99985E-06  1.96756E-08  1.26990E-11
       2.451226  9.82206E-01  1.75513E-02  2.10203E-04  2.08250E-06  1.93651E-08  1.14970E-11
       2.476238  9.82082E-01  1.76703E-02  2.14493E-04  2.16726E-06  1.89262E-08  1.02332E-11
       2.501251  9.81956E-01  1.77915E-02  2.18777E-04  2.25437E-06  1.84119E-08  8.97743E-12
       2.526263  9.81826E-01  1.79171E-02  2.23098E-04  2.34406E-06  1.78788E-08  7.79391E-12
       2.551276  9.81690E-01  1.80488E-02  2.27498E-04  2.43656E-06  1.73847E-08  6.73999E-12
       2.576288  9.81545E-01  1.81887E-02  2.32014E-04  2.53207E-06  1.69863E-08  5.86537E-12
       2.601301  9.81391E-01  1.83380E-02  2.36680E-04  2.63075E-06  1.67382E-08  5.21219E-12
       2.626313  9.81225E-01  1.84980E-02  2.41525E-04  2.73270E-06  1.66908E-08  4.81545E-12
       2.651326  9.81049E-01  1.86694E-02  2.46570E-04  2.83792E-06  1.68897E-08  4.70348E-12
       2.676338  9.80860E-01  1.88526E-02  2.51827E-04  2.94633E-06  1.73745E-08  4.89824E-12
       2.701351  9.80659E-01  1.90476E-02  2.57301E-04  3.05774E-06  1.81774E-08  5.41526E-12
       2.726363  9.80446E-01  1.92539E-02  2.62986E-04  3.17180E-06  1.93228E-08  6.26319E-12
       2.751376  9.80223E-01  1.94707E-02  2.68867E-04  3.28803E-06  2.08264E-08  7.44293E-12
       2.776388  9.79991E-01  1.96967E-02  2.74918E-04  3.40580E-06  2.26938E-08  8.94637E-12
       2.801401  9.79751E-01  1.99304E-02  2.81104E-04  3.52431E-06  2.49204E-08  1.07552E-11
       2.826413  9.79505E-01  2.01698E-02  2.87381E-04  3.64262E-06  2.74903E-08  1.28394E-11
       2.851426  9.79255E-01  2.04127E-02  2.93693E-04  3.75964E-06  3.03764E-08  1.51567E-11
       2.876438  9.79004E-01  2.06568E-02  2.99981E-04  3.87416E-06  3.35402E-08  1.76522E-11
       2.901451  9.78755E-01  2.08996E-02  3.06177E-04  3.98491E-06  3.69326E-08  2.02589E-11
       2.926463  9.78509E-01  2.11386E-02  3.12212E-04  4.09056E-06  4.04945E-08  2.28997E-11
       2.951476  9.78270E-01  2.13714E-02  3.18014E-04  4.18978E-06  4.41592E-08  2.54897E-11
       2.976488  9.78040E-01  2.15958E-02  3.23516E-04  4.28132E-06  4.78541E-08  2.79403E-11
       3.001501  9.77820E-01  2.18097E-02  3.28652E-04  4.36407E-06  5.15038E-08  3.01635E-11
       3.026513  9.77613E-01  2.20117E-02  3.33368E-04  4.43708E-06  5.50331E-08  3.20769E-11
       3.051526  9.77420E-01  2.22006E-02  3.37619E-04  4.49967E-06  5.83706E-08  3.36086E-11
       3.076538  9.77240E-01  2.23757E-02  3.41376E-04  4.55146E-06  6.14521E-08  3.47017E-11
       3.101551  9.77075E-01  2.25371E-02  3.44624E-04  4.59239E-06  6.42239E-08  3.53178E-11
       3.126563  9.76924E-01  2.26855E-02  3.47369E-04  4.62280E-06  6.66456E-08  3.54395E-11
       3.151576  9.76785E-01  2.28222E-02  3.49635E-04  4.64339E-06  6.86922E-08  3.50713E-11
       3.176588  9.76655E-01  2.29493E-02  3.51467E-04  4.65526E-06  7.03560E-08  3.42390E-11
       3.201601  9.76533E-01  2.30695E-02  3.52932E-04  4.65987E-06  7.16467E-08  3.29875E-11
       3.226613  9.76415E-01  2.31861E-02  3.54112E-04  4.65900E-06  7.25917E-08  3.13784E-11
       3.251626  9.76297E-01  2.33031E-02  3.55113E-04  4.65475E-06  7.32348E-08  2.94858E-11
       3.276638  9.76174E-01  2.34250E-02  3.56055E-04  4.64944E-06  7.36350E-08  2.73924E-11
       3.301651  9.76041E-01  2.35566E-02  3.57072E-04  4.64560E-06  7.38640E-08  2.51856E-11
       3.326663  9.75892E-01  2.37031E-02  3.58312E-04  4.64593E-06  7.40046E-08  2.29544E-11
       3.351676  9.75724E-01  2.38699E-02  3.59932E-04  4.65320E-06  7.41478E-08  2.07870E-11
       3.376688  9.75529E-01  2.40624E-02  3.62097E-04  4.67026E-06  7.43905E-08  1.87694E-11
       3.401701  9.75302E-01  2.42860E-02  3.64978E-04  4.70001E-06  7.48336E-08  1.69848E-11
       3.426713  9.75038E-01  2.45457E-02  3.68748E-04  4.74537E-06  7.55795E-08  1.55150E-11
       3.451726  9.74732E-01  2.48463E-02  3.73580E-04  4.80926E-06  7.67309E-08  1.44410E-11
       3.476738  9.74380E-01  2.51921E-02  3.79646E-04  4.89461E-06  7.83888E-08  1.38460E-11
       3.501751  9.73977E-01  2.55865E-02  3.87113E-04  5.00437E-06  8.06511E-08  1.38167E-11
       3.526763  9.73522E-01  2.60325E-02  3.96142E-04  5.14147E-06  8.36111E-08  1.44457E-11
       3.551776  9.73011E-01  2.65320E-02  4.06882E-04  5.30887E-06  8.73559E-08  1.58327E-11
       3.576788  9.72444E-01  2.70860E-02  4.19470E-04  5.50950E-06  9.19645E-08  1.80847E-11
       3.601801  9.71820E-01  2.76944E-02  4.34023E-04  5.74624E-06  9.75056E-08  2.13144E-11
       3.626813  9.71141E-01  2.83562E-02  4.50639E-04  6.02190E-06  1.04035E-07  2.56376E-11
       3.651826  9.70408E-01  2.90693E-02  4.69386E-04  6.33910E-06  1.11593E-07  3.11677E-11
       3.676838  9.69626E-01  2.98302E-02  4.90299E-04  6.70018E-06  1.20199E-07  3.80082E-11
       3.701851  9.68797E-01  3.06347E-02  5.13378E-04  7.10711E-06  1.29852E-07  4.62435E-11
       3.726863  9.67928E-01  3.14773E-02  5.38575E-04  7.56127E-06  1.40521E-07  5.59271E-11
       3.751876  9.67026E-01  3.23515E-02  5.65797E-04  8.06331E-06  1.52145E-07  6.70697E-11
       3.776888  9.66097E-01  3.32501E-02  5.94893E-04  8.61296E-06  1.64629E-07  7.96259E-11
       3.801901  9.65151E-01  3.41649E-02  6.25658E-04  9.20878E-06  1.77841E-07  9.34835E-11
       3.826913  9.64195E-01  3.50868E-02  6.57825E-04  9.84803E-06  1.91611E-07  1.08455E-10
       3.851926  9.63241E-01  3.60065E-02  6.91070E-04  1.05264E-05  2.05732E-07  1.24272E-10
       3.876938  9.62299E-01  3.69140E-02  7.25010E-04  1.12382E-05  2.19967E-07  1.40591E-10
       3.901951  9.61378E-01  3.77990E-02  7.59210E-04  1.19757E-05  2.34050E-07  1.57002E-10
       3.926963  9.60490E-01  3.86514E-02  7.93192E-04  1.27298E-05  2.47699E-07  1.73047E-10
       3.951976  9.59646E-01  3.94611E-02  8.26446E-04  1.34899E-05  2.60631E-07  1.88246E-10
       3.976988  9.58856E-01  4.02182E-02  8.58443E-04  1.42441E-05  2.72570E-07  2.02133E-10
       4.002001  9.58129E-01  4.09137E-02  8.88654E-04  1.49798E-05  2.83271E-07  2.14288E-10
       4.027014  9.57474E-01  4.15392E-02  9.16567E-04  1.56840E-05  2.92531E-07  2.24371E-10
       4.052026  9.56899E-01  4.20875E-02  9.41707E-04  1.63437E-05  3.00204E-07  2.32156E-10
       4.077039  9.56411E-01  4.25527E-02  9.63655E-04  1.69470E-05  3.06215E-07  2.37547E-10
       4.102051  9.56014E-01  4.29302E-02  9.82065E-04  1.74831E-05  3.10563E-07  2.40589E-10
       4.127064  9.55711E-01  4.32171E-02  9.96678E-04  1.79435E-05  3.13322E-07  2.41457E-10
       4.152076  9.55505E-01  4.34118E-02  1.00733E-03  1.83217E-05  3.14641E-07  2.40445E-10
       4.177089  9.55395E-01  4.35148E-02  1.01397E-03  1.86141E-05  3.14727E-07  2.37932E-10
       4.202101  9.55378E-01  4.35279E-02  1.01663E-03  1.88197E-05  3.13835E-07  2.34353E-10
       4.227114  9.55452E-01  4.34545E-02  1.01545E-03  1.89403E-05  3.12248E-07  2.30162E-10
       4.252126  9.55611E-01  4.32992E-02  1.01067E-03  1.89802E-05  3.10259E-07  2.25802E-10
       4.277139  9.55850E-01  4.30680E-02  1.00257E-03  1.89457E-05  3.08155E-07  2.21679E-10
       4.302151  9.56161E-01  4.27675E-02  9.91508E-04  1.88449E-05  3.06201E-07  2.18145E-10
       4.327164  9.56537E-01  4.24051E-02  9.77878E-04  1.86870E-05  3.04627E-07  2.15490E-10
       4.352176  9.56969E-01  4.19886E-02  9.62089E-04  1.84816E-05  3.03622E-07  2.13941E-10
       4.377189  9.57448E-01  4.15258E-02  9.44551E-04  1.82388E-05  3.03329E-07  2.13663E-10
       4.402201  9.57968E-01  4.10246E-02  9.25663E-04  1.79682E-05  3.03845E-07  2.14763E-10
       4.427214  9.58520E-01  4.04922E-02  9.05798E-04  1.76786E-05  3.05224E-07  2.17301E-10
       4.452226  9.59097E-01  3.99357E-02  8.85291E-04  1.73782E-05  3.07479E-07  2.21292E-10
       4.477239  9.59692E-01  3.93611E-02  8.64438E-04  1.70738E-05  3.10587E-07  2.26707E-10
       4.502251  9.60300E-01  3.87738E-02  8.43488E-04  1.67713E-05  3.14495E-07  2.33483E-10
       4.527264  9.60916E-01  3.81784E-02  8.22643E-04  1.64753E-05  3.19125E-07  2.41514E-10
       4.552276  9.61536E-01  3.75787E-02  8.02059E-04  1.61895E-05  3.24379E-07  2.50660E-10
       4.577289  9.62157E-01  3.69773E-02  7.81849E-04  1.59161E-05  3.30138E-07  2.60742E-10
       4.602301  9.62778E-01  3.63762E-02  7.62090E-04  1.56569E-05  3.36275E-07  2.71545E-10
       4.627314  9.63396E-01  3.57767E-02  7.42823E-04  1.54127E-05  3.42648E-07  2.82823E-10
       4.652326  9.64012E-01  3.51794E-02  7.24063E-04  1.51835E-05  3.49112E-07  2.94300E-10
       4.677339  9.64625E-01  3.45842E-02  7.05801E-04  1.49690E-05  3.55517E-07  3.05681E-10
       4.702351  9.65236E-01  3.39907E-02  6.88014E-04  1.47684E-05  3.61714E-07  3.16659E-10
       4.727364  9.65845E-01  3.33981E-02  6.70667E-04  1.45806E-05  3.67560E-07  3.26925E-10
       4.752376  9.66455E-01  3.28055E-02  6.53722E-04  1.44046E-05  3.72921E-07  3.36179E-10
       4.777389  9.67065E-01  3.22117E-02  6.37136E-04  1.42391E-05  3.77675E-07  3.44143E-10
       4.802401  9.67676E-01  3.16157E-02  6.20870E-04  1.40828E-05  3.81722E-07  3.50573E-10
       4.827414  9.68291E-01  3.10167E-02  6.04891E-04  1.39346E-05  3.84982E-07  3.55266E-10
       4.852426  9.68909E-01  3.04138E-02  5.89173E-04  1.37937E-05  3.87400E-07  3.58076E-10
       4.877439  9.69531E-01  2.98066E-02  5.73699E-04  1.36593E-05  3.88953E-07  3.58911E-10
       4.902451  9.70158E-01  2.91949E-02  5.58461E-04  1.35309E-05  3.89646E-07  3.57749E-10
       4.927464  9.70789E-01  2.85788E-02  5.43463E-04  1.34084E-05  3.89517E-07  3.54629E-10
       4.952476  9.71423E-01  2.79589E-02  5.28716E-04  1.32917E-05  3.88636E-07  3.49657E-10
       4.977489  9.72060E-01  2.73360E-02  5.14243E-04  1.31811E-05  3.87101E-07  3.42999E-10
       5.002501  9.72698E-01  2.67113E-02  5.00071E-04  1.30773E-05  3.85037E-07  3.34874E-10
       5.027514  9.73337E-01  2.60863E-02  4.86234E-04  1.29811E-05  3.82595E-07  3.25544E-10
       5.052526  9.73973E-01  2.54628E-02  4.72771E-04  1.28934E-05  3.79943E-07  3.15307E-10
       5.077539  9.74606E-01  2.48428E-02  4.59723E-04  1.28154E-05  3.77263E-07  3.04481E-10
       5.102551  9.75232E-01  2.42285E-02  4.47131E-04  1.27483E-05  3.74750E-07  2.93396E-10
       5.127564  9.75850E-01  2.36221E-02  4.35035E-04  1.26936E-05  3.72602E-07  2.82379E-10
       5.152576  9.76457E-01  2.30262E-02  4.23473E-04  1.26528E-05  3.71018E-07  2.71747E-10
       5.177589  9.77051E-01  2.24430E-02  4.12482E-04  1.26271E-05  3.70196E-07  2.61798E-10
       5.202601  9.77629E-01  2.18750E-02  4.02091E-04  1.26182E-05  3.70326E-07  2.52803E-10
       5.227614  9.78189E-01  2.13243E-02  3.92325E-04  1.26272E-05  3.71589E-07  2.45003E-10
