# population in each cavity level over  time for $\ket{\Psi(t=0)} = \ket{01}$ (integrated over all qubit levels)
#        t [ns]            0            1            2            3            4            5
       0.000000  9.40878E-01  5.91219E-02  1.84903E-31  3.19932E-32  3.17404E-33  3.88989E-35
       0.025013  9.40876E-01  5.91214E-02  6.23220E-11  2.46359E-20  5.70246E-30  8.17405E-36
       0.050025  9.40875E-01  5.91210E-02  6.00084E-09  2.28409E-16  5.15189E-24  5.88704E-32
       0.075038  9.40872E-01  5.91210E-02  7.09418E-08  3.19225E-14  8.51231E-21  1.05633E-27
       0.100050  9.40868E-01  5.91226E-02  3.93771E-07  9.83510E-13  1.45570E-18  9.16941E-25
       0.125063  9.40858E-01  5.91290E-02  1.46118E-06  1.35421E-11  7.43758E-17  1.58702E-22
       0.150075  9.40836E-01  5.91463E-02  4.21268E-06  1.12554E-10  1.78213E-15  1.00095E-20
       0.175088  9.40790E-01  5.91846E-02  1.02078E-05  6.60728E-10  2.53469E-14  3.15224E-19
       0.200100  9.40702E-01  5.92588E-02  2.17754E-05  3.00561E-09  2.45906E-13  5.96843E-18
       0.225113  9.40548E-01  5.93896E-02  4.21282E-05  1.12425E-08  1.77881E-12  7.65095E-17
       0.250125  9.40299E-01  5.96036E-02  7.54277E-05  3.60008E-08  1.01918E-11  7.19722E-16
       0.275138  9.39915E-01  5.99332E-02  1.26791E-04  1.01556E-07  4.82790E-11  5.26027E-15
       0.300150  9.39355E-01  6.04160E-02  2.02233E-04  2.57739E-07  1.95141E-10  3.11492E-14
       0.325163  9.38568E-01  6.10935E-02  3.08546E-04  5.97915E-07  6.89240E-10  1.54249E-13
       0.350175  9.37505E-01  6.20095E-02  4.53118E-04  1.28360E-06  2.16686E-09  6.54552E-13
       0.375188  9.36113E-01  6.32072E-02  6.43693E-04  2.57493E-06  6.15240E-09  2.42643E-12
       0.400200  9.34343E-01  6.47276E-02  8.88080E-04  4.86434E-06  1.59613E-08  7.97948E-12
       0.425213  9.32154E-01  6.66054E-02  1.19382E-03  8.70868E-06  3.81950E-08  2.35716E-11
       0.450225  9.29510E-01  6.88668E-02  1.56777E-03  1.48527E-05  8.49643E-08  6.31919E-11
       0.475238  9.26390E-01  7.15266E-02  2.01574E-03  2.42356E-05  1.76830E-07  1.55056E-10
       0.500250  9.22789E-01  7.45856E-02  2.54194E-03  3.79720E-05  3.46183E-07  3.50724E-10
       0.525263  9.18717E-01  7.80290E-02  3.14854E-03  5.72999E-05  6.40403E-07  7.35726E-10
       0.550275  9.14204E-01  8.18256E-02  3.83515E-03  8.34917E-05  1.12375E-06  1.43874E-09
       0.575288  9.09302E-01  8.59278E-02  4.59833E-03  1.17729E-04  1.87659E-06  2.63451E-09
       0.600300  9.04077E-01  9.02724E-02  5.43123E-03  1.60951E-04  2.99066E-06  4.53500E-09
       0.625313  8.98617E-01  9.47832E-02  6.32331E-03  2.13686E-04  4.55935E-06  7.36432E-09
       0.650325  8.93023E-01  9.93733E-02  7.26030E-03  2.75897E-04  6.66312E-06  1.13177E-08
       0.675338  8.87407E-01  1.03949E-01  8.22438E-03  3.46853E-04  9.35138E-06  1.65107E-08
       0.700350  8.81887E-01  1.08415E-01  9.19475E-03  4.25066E-04  1.26238E-05  2.29305E-08
       0.725363  8.76583E-01  1.12675E-01  1.01484E-02  5.08300E-04  1.64152E-05  3.04061E-08
       0.750375  8.71613E-01  1.16640E-01  1.10611E-02  5.93668E-04  2.05881E-05  3.86081E-08
       0.775388  8.67084E-01  1.20229E-01  1.19090E-02  6.77826E-04  2.49370E-05  4.70830E-08
       0.800400  8.63090E-01  1.23376E-01  1.26695E-02  7.57218E-04  2.92052E-05  5.53135E-08
       0.825413  8.59710E-01  1.26025E-01  1.33231E-02  8.28371E-04  3.31122E-05  6.27887E-08
       0.850425  8.57000E-01  1.28138E-01  1.38538E-02  8.88182E-04  3.63880E-05  6.90653E-08
       0.875438  8.54997E-01  1.29692E-01  1.42507E-02  9.34166E-04  3.88073E-05  7.38072E-08
       0.900450  8.53716E-01  1.30681E-01  1.45075E-02  9.64635E-04  4.02173E-05  7.68001E-08
       0.925463  8.53153E-01  1.31111E-01  1.46233E-02  9.78781E-04  4.05533E-05  7.79491E-08
       0.950475  8.53285E-01  1.31000E-01  1.46016E-02  9.76679E-04  3.98413E-05  7.72680E-08
       0.975488  8.54075E-01  1.30378E-01  1.44502E-02  9.59201E-04  3.81878E-05  7.48671E-08
       1.000500  8.55473E-01  1.29281E-01  1.41798E-02  9.27879E-04  3.57595E-05  7.09428E-08
       1.025513  8.57420E-01  1.27752E-01  1.38036E-02  8.84730E-04  3.27593E-05  6.57645E-08
       1.050525  8.59854E-01  1.25839E-01  1.33363E-02  8.32076E-04  2.94006E-05  5.96569E-08
       1.075538  8.62704E-01  1.23592E-01  1.27936E-02  7.72372E-04  2.58869E-05  5.29749E-08
       1.100550  8.65902E-01  1.21061E-01  1.21909E-02  7.08056E-04  2.23948E-05  4.60738E-08
       1.125563  8.69377E-01  1.18300E-01  1.15438E-02  6.41425E-04  1.90652E-05  3.92789E-08
       1.150575  8.73061E-01  1.15360E-01  1.08667E-02  5.74549E-04  1.59990E-05  3.28603E-08
       1.175588  8.76886E-01  1.12293E-01  1.01735E-02  5.09199E-04  1.32587E-05  2.70159E-08
       1.200600  8.80789E-01  1.09150E-01  9.47642E-03  4.46821E-04  1.08727E-05  2.18664E-08
       1.225613  8.84708E-01  1.05978E-01  8.78676E-03  3.88516E-04  8.84183E-06  1.74598E-08
       1.250625  8.88586E-01  1.02824E-01  8.11425E-03  3.35049E-04  7.14722E-06  1.37839E-08
       1.275638  8.92373E-01  9.97316E-02  7.46713E-03  2.86875E-04  5.75692E-06  1.07833E-08
       1.300650  8.96022E-01  9.67388E-02  6.85220E-03  2.44171E-04  4.63228E-06  8.37685E-09
       1.325663  8.99493E-01  9.38801E-02  6.27475E-03  2.06884E-04  3.73281E-06  6.47297E-09
       1.350675  9.02755E-01  9.11849E-02  5.73863E-03  1.74778E-04  3.01959E-06  4.98136E-09
       1.375688  9.05781E-01  8.86766E-02  5.24636E-03  1.47487E-04  2.45747E-06  3.82031E-09
       1.400700  9.08553E-01  8.63725E-02  4.79923E-03  1.24562E-04  2.01608E-06  2.92033E-09
       1.425713  9.11060E-01  8.42843E-02  4.39746E-03  1.05512E-04  1.67013E-06  2.22475E-09
       1.450725  9.13297E-01  8.24176E-02  4.04033E-03  8.98367E-05  1.39909E-06  1.68871E-09
       1.475738  9.15266E-01  8.07730E-02  3.72638E-03  7.70567E-05  1.18665E-06  1.27717E-09
       1.500750  9.16974E-01  7.93461E-02  3.45359E-03  6.67279E-05  1.02003E-06  9.62976E-10
       1.525763  9.18431E-01  7.81290E-02  3.21952E-03  5.84537E-05  8.89303E-07  7.24948E-10
       1.550775  9.19652E-01  7.71104E-02  3.02143E-03  5.18896E-05  7.86795E-07  5.46517E-10
       1.575788  9.20653E-01  7.62771E-02  2.85649E-03  4.67428E-05  7.06567E-07  4.14631E-10
       1.600800  9.21452E-01  7.56142E-02  2.72180E-03  4.27698E-05  6.43998E-07  3.18985E-10
       1.625813  9.22067E-01  7.51065E-02  2.61453E-03  3.97714E-05  5.95467E-07  2.51433E-10
       1.650825  9.22518E-01  7.47386E-02  2.53195E-03  3.75863E-05  5.58100E-07  2.05541E-10
       1.675838  9.22820E-01  7.44953E-02  2.47150E-03  3.60861E-05  5.29587E-07  1.76217E-10
       1.700850  9.22992E-01  7.43625E-02  2.43077E-03  3.51683E-05  5.08056E-07  1.59400E-10
       1.725863  9.23049E-01  7.43268E-02  2.40756E-03  3.47519E-05  4.91984E-07  1.51813E-10
       1.750875  9.23005E-01  7.43762E-02  2.39984E-03  3.47719E-05  4.80151E-07  1.50770E-10
       1.775888  9.22873E-01  7.44997E-02  2.40575E-03  3.51756E-05  4.71620E-07  1.54066E-10
       1.800900  9.22664E-01  7.46873E-02  2.42361E-03  3.59191E-05  4.65747E-07  1.59926E-10
       1.825913  9.22389E-01  7.49304E-02  2.45186E-03  3.69641E-05  4.62189E-07  1.67034E-10
       1.850925  9.22058E-01  7.52211E-02  2.48904E-03  3.82759E-05  4.60920E-07  1.74598E-10
       1.875938  9.21678E-01  7.55523E-02  2.53383E-03  3.98217E-05  4.62232E-07  1.82435E-10
       1.900950  9.21257E-01  7.59179E-02  2.58496E-03  4.15690E-05  4.66712E-07  1.91040E-10
       1.925963  9.20802E-01  7.63121E-02  2.64126E-03  4.34854E-05  4.75185E-07  2.01573E-10
       1.950975  9.20319E-01  7.67298E-02  2.70160E-03  4.55379E-05  4.88633E-07  2.15766E-10
       1.975988  9.19815E-01  7.71665E-02  2.76493E-03  4.76937E-05  5.08080E-07  2.35722E-10
       2.001001  9.19293E-01  7.76178E-02  2.83024E-03  4.99200E-05  5.34457E-07  2.63611E-10
       2.026013  9.18760E-01  7.80800E-02  2.89660E-03  5.21857E-05  5.68487E-07  3.01364E-10
       2.051026  9.18219E-01  7.85499E-02  2.96323E-03  5.44641E-05  6.10594E-07  3.50484E-10
       2.076038  9.17673E-01  7.90246E-02  3.02942E-03  5.67320E-05  6.60800E-07  4.11572E-10
       2.101051  9.17126E-01  7.95018E-02  3.09455E-03  5.89702E-05  7.18667E-07  4.84156E-10
       2.126063  9.16580E-01  7.99795E-02  3.15809E-03  6.11639E-05  7.83295E-07  5.66674E-10
       2.151076  9.16037E-01  8.04563E-02  3.21961E-03  6.33031E-05  8.53352E-07  6.56567E-10
       2.176088  9.15499E-01  8.09310E-02  3.27878E-03  6.53827E-05  9.27159E-07  7.50486E-10
       2.201101  9.14965E-01  8.14031E-02  3.33537E-03  6.74026E-05  1.00279E-06  8.44595E-10
       2.226113  9.14438E-01  8.18723E-02  3.38926E-03  6.93669E-05  1.07823E-06  9.34909E-10
       2.251126  9.13915E-01  8.23389E-02  3.44041E-03  7.12840E-05  1.15145E-06  1.01764E-09
       2.276138  9.13398E-01  8.28034E-02  3.48892E-03  7.31657E-05  1.22061E-06  1.08951E-09
       2.301151  9.12884E-01  8.32667E-02  3.53495E-03  7.50266E-05  1.28415E-06  1.14798E-09
       2.326163  9.12372E-01  8.37301E-02  3.57875E-03  7.68834E-05  1.34085E-06  1.19137E-09
       2.351176  9.11861E-01  8.41951E-02  3.62065E-03  7.87545E-05  1.38994E-06  1.21897E-09
       2.376188  9.11348E-01  8.46632E-02  3.66104E-03  8.06588E-05  1.43111E-06  1.23097E-09
       2.401201  9.10831E-01  8.51363E-02  3.70036E-03  8.26157E-05  1.46454E-06  1.22835E-09
       2.426213  9.10308E-01  8.56163E-02  3.73909E-03  8.46443E-05  1.49086E-06  1.21281E-09
       2.451226  9.09776E-01  8.61050E-02  3.77773E-03  8.67629E-05  1.51113E-06  1.18656E-09
       2.476238  9.09233E-01  8.66041E-02  3.81677E-03  8.89885E-05  1.52679E-06  1.15217E-09
       2.501251  9.08677E-01  8.71153E-02  3.85671E-03  9.13366E-05  1.53963E-06  1.11246E-09
       2.526263  9.08106E-01  8.76400E-02  3.89803E-03  9.38210E-05  1.55167E-06  1.07039E-09
       2.551276  9.07518E-01  8.81793E-02  3.94116E-03  9.64530E-05  1.56519E-06  1.02892E-09
       2.576288  9.06913E-01  8.87340E-02  3.98650E-03  9.92416E-05  1.58257E-06  9.91029E-10
       2.601301  9.06289E-01  8.93044E-02  4.03438E-03  1.02193E-04  1.60631E-06  9.59646E-10
       2.626313  9.05646E-01  8.98906E-02  4.08507E-03  1.05310E-04  1.63892E-06  9.37627E-10
       2.651326  9.04985E-01  9.04920E-02  4.13877E-03  1.08593E-04  1.68286E-06  9.27750E-10
       2.676338  9.04307E-01  9.11075E-02  4.19559E-03  1.12038E-04  1.74049E-06  9.32689E-10
       2.701351  9.03612E-01  9.17357E-02  4.25558E-03  1.15639E-04  1.81402E-06  9.54968E-10
       2.726363  9.02904E-01  9.23746E-02  4.31866E-03  1.19383E-04  1.90535E-06  9.96898E-10
       2.751376  9.02184E-01  9.30216E-02  4.38471E-03  1.23257E-04  2.01609E-06  1.06049E-09
       2.776388  9.01457E-01  9.36739E-02  4.45348E-03  1.27242E-04  2.14742E-06  1.14733E-09
       2.801401  9.00724E-01  9.43279E-02  4.52468E-03  1.31318E-04  2.30005E-06  1.25846E-09
       2.826413  8.99992E-01  9.49802E-02  4.59790E-03  1.35458E-04  2.47412E-06  1.39420E-09
       2.851426  8.99264E-01  9.56266E-02  4.67270E-03  1.39638E-04  2.66916E-06  1.55407E-09
       2.876438  8.98544E-01  9.62631E-02  4.74857E-03  1.43828E-04  2.88406E-06  1.73662E-09
       2.901451  8.97838E-01  9.68856E-02  4.82495E-03  1.47998E-04  3.11709E-06  1.93941E-09
       2.926463  8.97151E-01  9.74899E-02  4.90129E-03  1.52119E-04  3.36585E-06  2.15901E-09
       2.951476  8.96486E-01  9.80720E-02  4.97699E-03  1.56161E-04  3.62740E-06  2.39105E-09
       2.976488  8.95848E-01  9.86284E-02  5.05149E-03  1.60098E-04  3.89831E-06  2.63040E-09
       3.001501  8.95241E-01  9.91557E-02  5.12428E-03  1.63906E-04  4.17480E-06  2.87138E-09
       3.026513  8.94669E-01  9.96512E-02  5.19488E-03  1.67564E-04  4.45287E-06  3.10807E-09
       3.051526  8.94133E-01  1.00113E-01  5.26290E-03  1.71058E-04  4.72849E-06  3.33461E-09
       3.076538  8.93635E-01  1.00539E-01  5.32803E-03  1.74378E-04  4.99773E-06  3.54560E-09
       3.101551  8.93176E-01  1.00929E-01  5.39010E-03  1.77520E-04  5.25697E-06  3.73636E-09
       3.126563  8.92757E-01  1.01284E-01  5.44902E-03  1.80490E-04  5.50302E-06  3.90324E-09
       3.151576  8.92376E-01  1.01603E-01  5.50487E-03  1.83298E-04  5.73327E-06  4.04383E-09
       3.176588  8.92032E-01  1.01889E-01  5.55784E-03  1.85961E-04  5.94579E-06  4.15708E-09
       3.201601  8.91721E-01  1.02144E-01  5.60826E-03  1.88505E-04  6.13937E-06  4.24331E-09
       3.226613  8.91440E-01  1.02371E-01  5.65660E-03  1.90961E-04  6.31354E-06  4.30415E-09
       3.251626  8.91184E-01  1.02575E-01  5.70343E-03  1.93368E-04  6.46859E-06  4.34245E-09
       3.276638  8.90947E-01  1.02760E-01  5.74945E-03  1.95769E-04  6.60550E-06  4.36201E-09
       3.301651  8.90725E-01  1.02931E-01  5.79544E-03  1.98214E-04  6.72586E-06  4.36741E-09
       3.326663  8.90511E-01  1.03093E-01  5.84228E-03  2.00756E-04  6.83182E-06  4.36374E-09
       3.351676  8.90297E-01  1.03253E-01  5.89088E-03  2.03450E-04  6.92596E-06  4.35641E-09
       3.376688  8.90078E-01  1.03415E-01  5.94218E-03  2.06356E-04  7.01123E-06  4.35090E-09
       3.401701  8.89845E-01  1.03587E-01  5.99715E-03  2.09535E-04  7.09081E-06  4.35269E-09
       3.426713  8.89593E-01  1.03773E-01  6.05673E-03  2.13049E-04  7.16810E-06  4.36710E-09
       3.451726  8.89315E-01  1.03979E-01  6.12181E-03  2.16959E-04  7.24661E-06  4.39929E-09
       3.476738  8.89004E-01  1.04211E-01  6.19325E-03  2.21326E-04  7.32994E-06  4.45428E-09
       3.501751  8.88656E-01  1.04473E-01  6.27178E-03  2.26207E-04  7.42171E-06  4.53705E-09
       3.526763  8.88265E-01  1.04770E-01  6.35805E-03  2.31658E-04  7.52562E-06  4.65260E-09
       3.551776  8.87827E-01  1.05104E-01  6.45257E-03  2.37729E-04  7.64538E-06  4.80618E-09
       3.576788  8.87340E-01  1.05478E-01  6.55571E-03  2.44467E-04  7.78475E-06  5.00343E-09
       3.601801  8.86802E-01  1.05894E-01  6.66770E-03  2.51908E-04  7.94750E-06  5.25059E-09
       3.626813  8.86212E-01  1.06352E-01  6.78855E-03  2.60082E-04  8.13747E-06  5.55471E-09
       3.651826  8.85569E-01  1.06853E-01  6.91814E-03  2.69008E-04  8.35848E-06  5.92378E-09
       3.676838  8.84876E-01  1.07395E-01  7.05614E-03  2.78694E-04  8.61433E-06  6.36689E-09
       3.701851  8.84135E-01  1.07977E-01  7.20202E-03  2.89133E-04  8.90871E-06  6.89428E-09
       3.726863  8.83350E-01  1.08594E-01  7.35507E-03  3.00302E-04  9.24512E-06  7.51724E-09
       3.751876  8.82527E-01  1.09243E-01  7.51439E-03  3.12164E-04  9.62669E-06  8.24794E-09
       3.776888  8.81670E-01  1.09920E-01  7.67888E-03  3.24660E-04  1.00560E-05  9.09902E-09
       3.801901  8.80788E-01  1.10617E-01  7.84728E-03  3.37714E-04  1.05349E-05  1.00830E-08
       3.826913  8.79888E-01  1.11329E-01  8.01816E-03  3.51231E-04  1.10642E-05  1.12115E-08
       3.851926  8.78979E-01  1.12048E-01  8.18994E-03  3.65094E-04  1.16434E-05  1.24940E-08
       3.876938  8.78071E-01  1.12768E-01  8.36092E-03  3.79172E-04  1.22705E-05  1.39369E-08
       3.901951  8.77174E-01  1.13479E-01  8.52931E-03  3.93313E-04  1.29415E-05  1.55419E-08
       3.926963  8.76298E-01  1.14173E-01  8.69325E-03  4.07358E-04  1.36507E-05  1.73049E-08
       3.951976  8.75453E-01  1.14843E-01  8.85089E-03  4.21135E-04  1.43901E-05  1.92142E-08
       3.976988  8.74650E-01  1.15480E-01  9.00035E-03  4.34472E-04  1.51499E-05  2.12502E-08
       4.002001  8.73897E-01  1.16076E-01  9.13988E-03  4.47196E-04  1.59182E-05  2.33847E-08
       4.027014  8.73205E-01  1.16625E-01  9.26783E-03  4.59143E-04  1.66818E-05  2.55807E-08
       4.052026  8.72580E-01  1.17120E-01  9.38272E-03  4.70166E-04  1.74264E-05  2.77939E-08
       4.077039  8.72030E-01  1.17555E-01  9.48330E-03  4.80136E-04  1.81375E-05  2.99742E-08
       4.102051  8.71560E-01  1.17927E-01  9.56858E-03  4.88948E-04  1.88008E-05  3.20678E-08
       4.127064  8.71174E-01  1.18233E-01  9.63789E-03  4.96529E-04  1.94032E-05  3.40211E-08
       4.152076  8.70874E-01  1.18470E-01  9.69086E-03  5.02835E-04  1.99336E-05  3.57830E-08
       4.177089  8.70660E-01  1.18639E-01  9.72745E-03  5.07856E-04  2.03834E-05  3.73092E-08
       4.202101  8.70531E-01  1.18740E-01  9.74796E-03  5.11611E-04  2.07469E-05  3.85646E-08
       4.227114  8.70484E-01  1.18777E-01  9.75300E-03  5.14152E-04  2.10219E-05  3.95261E-08
       4.252126  8.70514E-01  1.18751E-01  9.74346E-03  5.15553E-04  2.12098E-05  4.01840E-08
       4.277139  8.70616E-01  1.18668E-01  9.72047E-03  5.15910E-04  2.13150E-05  4.05424E-08
       4.302151  8.70784E-01  1.18533E-01  9.68537E-03  5.15336E-04  2.13452E-05  4.06184E-08
       4.327164  8.71009E-01  1.18352E-01  9.63960E-03  5.13954E-04  2.13102E-05  4.04408E-08
       4.352176  8.71285E-01  1.18130E-01  9.58472E-03  5.11890E-04  2.12220E-05  4.00477E-08
       4.377189  8.71603E-01  1.17874E-01  9.52228E-03  5.09271E-04  2.10934E-05  3.94833E-08
       4.402201  8.71955E-01  1.17590E-01  9.45383E-03  5.06220E-04  2.09380E-05  3.87952E-08
       4.427214  8.72335E-01  1.17283E-01  9.38082E-03  5.02851E-04  2.07689E-05  3.80311E-08
       4.452226  8.72736E-01  1.16960E-01  9.30458E-03  4.99265E-04  2.05987E-05  3.72365E-08
       4.477239  8.73151E-01  1.16624E-01  9.22631E-03  4.95553E-04  2.04384E-05  3.64523E-08
       4.502251  8.73575E-01  1.16279E-01  9.14701E-03  4.91789E-04  2.02976E-05  3.57133E-08
       4.527264  8.74005E-01  1.15929E-01  9.06751E-03  4.88033E-04  2.01839E-05  3.50470E-08
       4.552276  8.74438E-01  1.15576E-01  8.98844E-03  4.84330E-04  2.01028E-05  3.44735E-08
       4.577289  8.74872E-01  1.15221E-01  8.91023E-03  4.80711E-04  2.00577E-05  3.40051E-08
       4.602301  8.75305E-01  1.14865E-01  8.83313E-03  4.77194E-04  2.00498E-05  3.36471E-08
       4.627314  8.75739E-01  1.14508E-01  8.75724E-03  4.73784E-04  2.00784E-05  3.33978E-08
       4.652326  8.76173E-01  1.14149E-01  8.68248E-03  4.70478E-04  2.01408E-05  3.32498E-08
       4.677339  8.76610E-01  1.13786E-01  8.60867E-03  4.67262E-04  2.02328E-05  3.31905E-08
       4.702351  8.77051E-01  1.13417E-01  8.53552E-03  4.64119E-04  2.03485E-05  3.32032E-08
       4.727364  8.77500E-01  1.13041E-01  8.46266E-03  4.61023E-04  2.04809E-05  3.32678E-08
       4.752376  8.77959E-01  1.12655E-01  8.38967E-03  4.57949E-04  2.06224E-05  3.33619E-08
       4.777389  8.78431E-01  1.12257E-01  8.31612E-03  4.54868E-04  2.07645E-05  3.34616E-08
       4.802401  8.78919E-01  1.11843E-01  8.24157E-03  4.51751E-04  2.08985E-05  3.35425E-08
       4.827414  8.79425E-01  1.11412E-01  8.16558E-03  4.48571E-04  2.10161E-05  3.35806E-08
       4.852426  8.79954E-01  1.10962E-01  8.08776E-03  4.45302E-04  2.11091E-05  3.35534E-08
       4.877439  8.80506E-01  1.10490E-01  8.00779E-03  4.41921E-04  2.11702E-05  3.34404E-08
       4.902451  8.81084E-01  1.09994E-01  7.92538E-03  4.38410E-04  2.11931E-05  3.32243E-08
       4.927464  8.81689E-01  1.09475E-01  7.84032E-03  4.34751E-04  2.11725E-05  3.28918E-08
       4.952476  8.82323E-01  1.08930E-01  7.75248E-03  4.30933E-04  2.11047E-05  3.24335E-08
       4.977489  8.82985E-01  1.08360E-01  7.66180E-03  4.26948E-04  2.09876E-05  3.18450E-08
       5.002501  8.83676E-01  1.07763E-01  7.56827E-03  4.22791E-04  2.08205E-05  3.11269E-08
       5.027514  8.84395E-01  1.07142E-01  7.47198E-03  4.18461E-04  2.06042E-05  3.02844E-08
       5.052526  8.85142E-01  1.06496E-01  7.37306E-03  4.13961E-04  2.03410E-05  2.93272E-08
       5.077539  8.85915E-01  1.05826E-01  7.27170E-03  4.09297E-04  2.00346E-05  2.82690E-08
       5.102551  8.86713E-01  1.05133E-01  7.16814E-03  4.04477E-04  1.96898E-05  2.71269E-08
       5.127564  8.87535E-01  1.04419E-01  7.06265E-03  3.99512E-04  1.93122E-05  2.59201E-08
       5.152576  8.88378E-01  1.03685E-01  6.95551E-03  3.94417E-04  1.89081E-05  2.46696E-08
       5.177589  8.89241E-01  1.02934E-01  6.84705E-03  3.89206E-04  1.84844E-05  2.33964E-08
       5.202601  8.90121E-01  1.02165E-01  6.73759E-03  3.83896E-04  1.80478E-05  2.21215E-08
       5.227614  8.91017E-01  1.01382E-01  6.62744E-03  3.78506E-04  1.76053E-05  2.08645E-08
