#        t [ns]             Re[<00|Psi>]             Im[<00|Psi>]             Re[<01|Psi>]             Im[<01|Psi>]             Re[<10|Psi>]             Im[<10|Psi>]             Re[<11|Psi>]             Im[<11|Psi>]
       0.000000   0.0000000000000000E+00   0.0000000000000000E+00   1.0000000000000002E+00   0.0000000000000000E+00   5.5511151231256798E-17   0.0000000000000000E+00   2.5163331506687795E-16   0.0000000000000000E+00
       0.025013   5.1448128427111477E-06  -2.1677357851296915E-06   6.0227735078063427E-01  -7.9828550855880009E-01  -1.0373834616328431E-07   1.3977199099512931E-07  -8.4216686824404708E-07   7.4349399606897794E-06
       0.050025   5.0581505271609440E-05  -2.1055332744322893E-05  -2.7452173780900763E-01  -9.6157853593627285E-01   1.0163878519375056E-07   3.3597434162535488E-07   7.2357408796383041E-05  -1.2512273048556723E-05
       0.075038   1.7420601029692877E-04  -7.1816702876222684E-05  -9.3295214626822054E-01  -3.5999014541050040E-01   5.2416185991610808E-07   1.8857106472150451E-07  -1.1125316300883730E-04  -2.2671496799814050E-04
       0.100050   4.1108552736686914E-04  -1.6801930341162237E-04  -8.4926959671921676E-01   5.2794741277807411E-01   7.4264137507613603E-07  -4.9125075074487286E-07  -4.3909014469714489E-04   4.0180822663293071E-04
       0.125063   7.9312442434203718E-04  -3.2170054287631244E-04  -9.0042861654835910E-02   9.9592532887326046E-01   9.4419797898597242E-08  -1.5891759458931537E-06   9.8086350868698620E-04   5.9466333388713565E-04
       0.150075   1.3487434260933892E-03  -5.4343074134786723E-04   7.4079181320125287E-01   6.7169500555896411E-01  -2.3835007805785595E-06  -2.0255188042382402E-06   5.0205942788769979E-04  -1.8829239446246213E-03
       0.175088   2.1025750134671018E-03  -8.4238124107967175E-04   9.8233901145610569E-01  -1.8680939487187301E-01  -6.1208309674872787E-06   1.3798677101150977E-06  -3.0344883443190894E-03   7.1567462483070233E-05
       0.200100   3.0751777778034476E-03  -1.2263953328110857E-03   4.4249315073970624E-01  -8.9664692177967931E-01  -4.9964745992764269E-06   1.1124354835467208E-05   1.3424849484620824E-03   4.2283041461095251E-03
       0.225113   4.2827730796771600E-03  -1.7020590121255186E-03  -4.4922507626585129E-01  -8.9318404365447768E-01   1.0894390654949264E-05   1.9686609122174033E-05   5.1277043677219721E-03  -3.4404340557559285E-03
       0.250125   5.7370088611283137E-03  -2.2747683578493104E-03  -9.8341578011936859E-01  -1.7932328539023701E-01   3.8913313568339546E-05   5.3769047635724178E-06  -6.3416695634466360E-03  -5.3053030449521383E-03
       0.275138   7.4447577704118547E-03  -2.9487906320664701E-03  -7.3528167184390714E-01   6.7685766132693770E-01   4.5788533778278410E-05  -4.6308973761636223E-05  -4.3133388949464007E-03   9.8209308378262531E-03
       0.300150   9.4079595842343506E-03  -3.7273170776291058E-03   9.7398662828146729E-02   9.9427079515790284E-01  -1.5280850430667652E-05  -1.0191695321454482E-04   1.3436236224152064E-02   1.7759634835913995E-03
       0.325163   1.1623520782444469E-02  -4.6125067966476807E-03   8.5190548898748575E-01   5.2087875508436354E-01  -1.3784301463741735E-04  -7.4098072406350888E-05  -2.5119249299220643E-03  -1.6555440985910375E-02
       0.350175   1.4083286449818173E-02  -5.6055229079623910E-03   9.2830362049078052E-01  -3.6599438488500957E-01  -2.0773611160906539E-04   9.6688617355770542E-05  -1.8426361314026769E-02   8.4979522190516479E-03
       0.375188   1.6774100818756590E-02  -6.7065641865929945E-03   2.6684978020548733E-01  -9.6057839062506623E-01  -6.6505045539759288E-05   3.1790774667624913E-04   1.5816315956970736E-02   1.8284097077931483E-02
       0.400200   1.9677972168297770E-02  -7.9148972806177536E-03  -6.0522310878047247E-01  -7.9079654074000716E-01   2.9584124734974949E-04   3.3539971419328812E-04   1.5481404652320924E-02  -2.3777805904185347E-02
       0.425213   2.2772355091024276E-02  -9.2288960137368488E-03  -9.9438598449048943E-01   6.5355740389199772E-03   5.9801382983287992E-04  -4.8613275455061074E-05  -3.1414362207169949E-02  -9.6220442084454551E-03
       0.450225   2.6030558252998097E-02  -1.0646094829645323E-02  -5.9299644018368336E-01   7.9611886325957160E-01   4.1794567228904211E-04  -6.6583590187852470E-04  -6.7420527712664280E-04   3.7577898561323847E-02
       0.475238   2.9422278976303378E-02  -1.2163262786000169E-02   2.7729096325227104E-01   9.5107567387576841E-01  -3.6327347266265880E-04  -9.4039856969711322E-04   4.1083516084768422E-02  -1.0957815616815766E-02
       0.500250   3.2914257888762441E-02  -1.3776502477377680E-02   9.2379664404506556E-01   3.5126906992642726E-01  -1.2206190473472221E-03  -3.4171207890848552E-04  -2.4420432010505231E-02  -4.0878578000184310E-02
       0.525263   3.6471038394490375E-02  -1.5481374919032403E-02   8.3499594704208080E-01  -5.2374313383068094E-01  -1.2399629818438231E-03   9.5489030573999356E-04  -3.6213074082243134E-02   3.8464372450958510E-02
       0.550275   4.0055807816431019E-02  -1.7273047132364400E-02   8.5597239790961802E-02  -9.7895185488765779E-01   2.7809382419453479E-05   1.8999093639991470E-03   5.1562870066510121E-02   2.6784566827105050E-02
       0.575288   4.3631290658503165E-02  -1.9146454634378893E-02  -7.2666634604891023E-01  -6.5669604783979529E-01   1.8392097340634631E-03   1.3325197197948911E-03   1.2833395782384767E-02  -6.2081506932341657E-02
       0.600300   4.7160660172763665E-02  -2.1096467169000682E-02  -9.5873922477070239E-01   1.8244403896109262E-01   2.5543118273660538E-03  -7.9620181471523133E-04  -6.8477781251938402E-02   4.8295062427583055E-03
       0.625313   5.0608432553728648E-02  -2.3118043777980591E-02  -4.3172173658346530E-01   8.7115558401836002E-01   1.0355017582067644E-03  -2.9318405231222385E-03   2.4869935881875790E-02   6.9502885815203738E-02
       0.650325   5.3941308488794137E-02  -2.5206363404631178E-02   4.3191544033436319E-01   8.6680487669286344E-01  -1.9837534291957189E-03  -2.9655584486963228E-03   6.4377105379227764E-02  -4.5549249252670725E-02
       0.675338   5.7128929077092612E-02  -2.7356919871138287E-02   9.4786812869109494E-01   1.7878777830512080E-01  -4.0402217837132732E-03  -2.1098518192791158E-04  -6.4900240552908425E-02  -5.2913869556724308E-02
       0.700350   6.0144516835520384E-02  -2.9565574846412174E-02   7.1245296918381629E-01  -6.4451629677544797E-01  -2.9016504294179382E-03   3.4876565654303627E-03  -3.5575127275643034E-02   8.0937263139670340E-02
       0.725363   6.2965377327425978E-02  -3.1828568309388267E-02  -8.2294031549449281E-02  -9.5340863214235783E-01   1.1728277867710036E-03   4.8966445865355514E-03   9.1873317463324222E-02   1.3450864238391912E-02
       0.750375   6.5573242804798995E-02  -3.4142491652566553E-02  -8.0597981272863595E-01  -5.0918072985608898E-01   5.0829399303585470E-03   2.1891207156215916E-03  -1.1833640122610720E-02  -9.6316819907824494E-02
       0.775388   6.7954446257058682E-02  -3.6504232645245022E-02  -8.8988842039965543E-01   3.3247979050311582E-01   5.2244200336037678E-03  -3.0079735844098744E-03  -9.3424888251126645E-02   3.8269729395845782E-02
       0.800400   7.0099922495579878E-02  -3.8910903098518607E-02  -2.7299769426681780E-01   9.0668241256741655E-01   7.7483334567132094E-04  -6.4660159913049100E-03   6.3656650772696124E-02   8.2997128997903152E-02
       0.825413   7.2005042198879710E-02  -4.1359759040614903E-02   5.5480950962280295E-01   7.6394842181615408E-01  -5.0561268628163342E-03  -4.8136369203523937E-03   6.5502528235939841E-02  -8.5809202098151655E-02
       0.850425   7.3669294622876302E-02  -4.3848120036500182E-02   9.4157555074044319E-01   2.0954661850559844E-02  -7.3258815594997133E-03   1.2463219464293287E-03  -1.0275906724406846E-01  -4.2040524375075120E-02
       0.875438   7.5095844012965443E-02  -4.6373290029217008E-02   5.8566372670339018E-01  -7.3509293230894313E-01  -3.5790465858614945E-03   6.9974727732019749E-03  -1.4244400047320875E-02   1.1293029999848850E-01
       0.900450   7.6290992574277280E-02  -4.8932478034983268E-02  -2.2988034672306609E-01  -9.0977220796229963E-01   3.6460661256841292E-03   7.4170936839051665E-03   1.1527432281012251E-01  -1.5859954607583465E-02
       0.925463   7.7263588243392980E-02  -5.1522714369793270E-02  -8.6216306754450422E-01  -3.6766208085690621E-01   8.4997018564091521E-03   1.5821899745569535E-03  -4.6024235449729840E-02  -1.0935539839123952E-01
       0.950475   7.8024417888756581E-02  -5.4140757595667395E-02  -8.1414679724874806E-01   4.6304959671155710E-01   6.6110934624366994E-03  -6.1102004727471666E-03  -9.5382948144261681E-02   7.3960599759651802E-02
       0.975488   7.8585625781515900E-02  -5.6782989237841766E-02  -1.2453646378628636E-01   9.2802375856104846E-01  -9.8355975457835678E-04  -9.2832007164390454E-03   9.7521871907429614E-02   7.4191797806673357E-02
       1.000500   7.8960193386884453E-02  -5.9445297115289057E-02   6.6319131196669401E-01   6.6112462714818676E-01  -8.2991833641405284E-03  -4.9151802607598433E-03   4.7175192203793306E-02  -1.1486566728070779E-01
       1.025513   7.9161510101857416E-02  -6.2122952938327362E-02   9.2812382342186872E-01  -1.2761272349333733E-01  -9.1656790057996727E-03   3.8327965944503317E-03  -1.2459155582322061E-01  -1.6178200679003590E-02
       1.050525   7.9203056003033095E-02  -6.4810494517991424E-02   4.6058967493519598E-01  -8.1663635679651869E-01  -2.4626301041693588E-03   9.9031897321062001E-03   1.6639005109260530E-02   1.2584319993169796E-01
       1.075538   7.9098207554173863E-02  -6.7501626419619973E-02  -3.7174923410916261E-01  -8.6177350711439482E-01   6.6362574764247742E-03   8.0817874690674776E-03   1.1837026817746156E-01  -4.8957476690831302E-02
       1.100550   7.8860166244349536E-02  -7.0189154393628841E-02  -9.1220721252029091E-01  -2.2570137686824840E-01   1.0681728847848970E-02  -5.1466750533721664E-04  -7.8464546882141301E-02  -1.0254768202548252E-01
       1.125563   7.8501999089654259E-02  -7.2864968070946085E-02  -7.3254929041265904E-01   5.9073706781518864E-01   6.0827603511299285E-03  -9.0652869121679615E-03  -7.9352287661735910E-02   1.0301696573670972E-01
       1.150575   7.8036769751299459E-02  -7.5520083289898912E-02   2.7567364481939829E-02   9.4213829012898986E-01  -3.7200004705614251E-03  -1.0487053167862762E-02   1.2079210448454983E-01   5.0299306154144310E-02
       1.175588   7.7477730679777673E-02  -7.8144750445561031E-02   7.6844374602088006E-01   5.4849232206721610E-01  -1.0827929026548926E-02  -3.3238892509109860E-03   1.7342901224526905E-02  -1.3041818205061112E-01
       1.200600   7.6838541133419799E-02  -8.0728629079749883E-02   9.0295190407980153E-01  -2.8125525071153262E-01  -9.2751520758332425E-03   6.8259685619601424E-03  -1.3107568934318836E-01   1.7253056363145548E-02
       1.225613   7.6133473907558022E-02  -8.3261022350527084E-02   3.2195396398968112E-01  -8.9100951837813502E-01  -4.5162056098571723E-05   1.1697039298460367E-02   5.1066430847446484E-02   1.2256365086299903E-01
       1.250625   7.5377575572565109E-02  -8.5731158865314128E-02  -5.1658843466261306E-01  -7.9611831628618246E-01   9.5074391551027478E-03   7.1076553841677940E-03   1.0532609219802153E-01  -8.1681587923270585E-02
       1.275638   7.4586750891261572E-02  -8.8128504413156075E-02  -9.4813407232168212E-01  -6.9008400447652843E-02   1.1531591385792539E-02  -3.4531635107460869E-03  -1.0685761160599394E-01  -8.0436096057923831E-02
       1.300650   7.3777751241705103E-02  -9.0443083022675036E-02  -6.2835065887584196E-01   7.1542826869720888E-01   4.1454415230957930E-03  -1.1473122100282031E-02  -4.9537114398084274E-02   1.2468949742284162E-01
       1.325663   7.2968058162619517E-02  -9.2665785888097305E-02   1.9158747538593854E-01   9.3420913724169674E-01  -6.8396757634468274E-03  -1.0290590002720309E-02   1.3375174837024295E-01   1.4743691594663931E-02
       1.350675   7.2175665067377812E-02  -9.4788648107933277E-02   8.6185487854907050E-01   4.1141652994118960E-01  -1.2494216883676520E-02  -6.3342646585007876E-04  -2.1493676232980190E-02  -1.3321428745756142E-01
       1.375688   7.1418771155334099E-02  -9.6805076587573979E-02   8.4911326990644731E-01  -4.3983726198384965E-01  -8.0376643221264973E-03   9.7840818857202957E-03  -1.2292171717392576E-01   5.6552319129143672E-02
       1.400700   7.0715410212372334E-02  -9.8710017297106212E-02   1.6140365654471886E-01  -9.4369491146474771E-01   3.1229971854582466E-03   1.2427053273978351E-02   8.7820307032604086E-02   1.0342869668770799E-01
       1.425713   7.0083042413382174E-02  -1.0050005560831629E-01  -6.5621628466713733E-01  -6.9850425686058415E-01   1.1989274359496397E-02   4.9350875158914991E-03   7.5986530311728639E-02  -1.1288709874209595E-01
       1.450725   6.9538139076139649E-02  -1.0217344890215864E-01  -9.5377234890452500E-01   1.0253170235196563E-01   1.1226762084773028E-02  -6.7873435245847935E-03  -1.2972914059578339E-01  -4.2478901075477124E-02
       1.475738   6.9095788799842503E-02  -1.0373009540564274E-01  -4.9351441517967065E-01   8.2344022568776998E-01   1.2279997798765191E-03  -1.3219221107192454E-02  -5.3079569772081173E-03   1.3687689742388939E-01
       1.500750   6.8769349231378882E-02  -1.0517144686779382E-01   3.5980010626754616E-01   8.9068744894040885E-01  -1.0023392999601262E-02  -8.9506662880469313E-03   1.3354986761266258E-01  -3.2764451774485372E-02
       1.525763   6.8570162772154927E-02  -1.0650037504667756E-01   9.2805291942126777E-01   2.4986165296962329E-01  -1.3319663893418869E-02   2.7785749341463065E-03  -6.8811851705359639E-02  -1.1974715696207835E-01
       1.550775   6.8507347853194914E-02  -1.0772100309920168E-01   7.5901108588174115E-01  -5.9018866338931730E-01  -5.7520149867099019E-03   1.2524766799231014E-02  -9.6283291716953545E-02   9.9962383175386388E-02
       1.575788   6.8587670836248726E-02  -1.0883851304017604E-01  -1.3506285035736377E-02  -9.6163085314796659E-01   6.7465887970396196E-03   1.2230237938175008E-02   1.2362686027385454E-01   6.4762199837659629E-02
       1.600800   6.8815497794913735E-02  -1.0985893974046688E-01  -7.7561761574906196E-01  -5.6888740059982956E-01   1.4039932729258187E-02   1.8659884390032856E-03   2.7486620440141288E-02  -1.3771798982761385E-01
       1.625813   6.9192820787364731E-02  -1.1078896074896459E-01  -9.2148162458108329E-01   2.7605304689809312E-01   9.9881008678363095E-03  -1.0332538073304913E-02  -1.4084201746858513E-01   1.2694607000887851E-02
       1.650825   6.9719349907045244E-02  -1.1163568979583724E-01  -3.3512656411664082E-01   9.0165189808694635E-01  -2.4094989413188262E-03  -1.4391084824537922E-02   5.2593263089983182E-02   1.3244460783469866E-01
       1.675838   7.0392660356709325E-02  -1.1240648035122046E-01   5.1738652553988740E-01   8.1080106193987633E-01  -1.3213226142438627E-02  -6.7242626715259476E-03   1.1289511977069738E-01  -8.8928782237274490E-02
       1.700850   7.1208382876446194E-02  -1.1310874419466191E-01   9.5863831430296820E-01   7.5919781420274113E-02  -1.3486582523575808E-02   6.7356177808230305E-03  -1.1859701854098000E-01  -8.3497610414862478E-02
       1.725863   7.2160425845268467E-02  -1.1374978865858933E-01   6.3832140313656816E-01  -7.1891363764171212E-01  -2.6545086161887405E-03   1.5108231371050431E-02  -4.6422663910277183E-02   1.3893860918069878E-01
       1.750875   7.3241218029835395E-02  -1.1433667506169677E-01  -1.8867714501790195E-01  -9.4240087980848164E-01   1.0755025841960683E-02   1.1327768816409092E-02   1.4798311790163554E-01   4.5610313691946940E-03
       1.775888   7.4441962050383892E-02  -1.1487609983514210E-01  -8.6528538980685221E-01  -4.1752331423361305E-01   1.5798871142583305E-02  -1.9331354061120133E-03  -3.8692557219664601E-02  -1.4464569278002290E-01
       1.800900   7.5752889983743230E-02  -1.1537429894294152E-01  -8.5447450514072631E-01   4.3835209768575711E-01   8.0116182276647723E-03  -1.4113966821610776E-02  -1.2885588421986630E-01   7.9709949404905014E-02
       1.825913   7.7163513976052756E-02  -1.1583697538553389E-01  -1.6550466115785353E-01   9.4553700145546116E-01  -6.6932551679410668E-03  -1.5144534933598509E-02   1.1493298980575201E-01   1.0160339939178437E-01
       1.850925   7.8662866180255614E-02  -1.1626924883953668E-01   6.5411087767014897E-01   7.0189074332253787E-01  -1.6484535434816507E-02  -3.7303366214841982E-03   6.4892515468984752E-02  -1.4118400871177683E-01
       1.875938   8.0239723684333561E-02  -1.1667562582895517E-01   9.5385836796888512E-01  -9.8390902796372859E-02  -1.3097477960703607E-02   1.1240513769222195E-02  -1.5595559462581152E-01  -2.1605012546949742E-02
       1.900950   8.1882815300444819E-02  -1.1705998825933037E-01   4.9655486531423215E-01  -8.1970607911724946E-01   1.2322809429397381E-03   1.7588354194014496E-02   2.4719959464720651E-02   1.5765248568958717E-01
       1.925963   8.3581008108277469E-02  -1.1742559770163953E-01  -3.5407640512102773E-01  -8.8995736039277562E-01   1.5171313486346661E-02   9.7161763273584719E-03   1.4576169308019973E-01  -7.0172544968188394E-02
       1.950975   8.5323472469176764E-02  -1.1777511251380961E-01  -9.2282518083497445E-01  -2.5427571580052949E-01   1.7222447801934888E-02  -6.5096093772590439E-03  -1.1080198183638872E-01  -1.2093267789652561E-01
       1.975988   8.7099824840328924E-02  -1.1811061475410360E-01  -7.5900564052716413E-01   5.8224346823481543E-01   5.1754795647909885E-03  -1.8091488321794032E-02  -8.4957060322516043E-02   1.4296125803501189E-01
       2.001001   8.8900248105086302E-02  -1.1843364387991820E-01   6.4707329799771843E-03   9.5596197643724290E-01  -1.1669008380196572E-02  -1.5286363551148405E-02   1.6363598343344007E-01   4.0646257858018890E-02
       2.026013   9.0715794148387555E-02  -1.1874526971859922E-01   7.6579506036137102E-01   5.7118447695773900E-01  -1.9650681029520226E-02   2.3001211339804880E-04  -8.3851857787310222E-03  -1.7072754962973136E-01
       2.051026   9.2539298856089844E-02  -1.1904626257690348E-01   9.1691916701179110E-01  -2.6594713045606116E-01  -1.1807654696772658E-02   1.6239522018326544E-02  -1.6326417891512071E-01   5.8014572457407820E-02
       2.076038   9.4364455835101571E-02  -1.1933693854668861E-01   3.4087696383311566E-01  -8.9108800802407662E-01   6.0936550825711790E-03   1.9582879316879284E-02   1.0395995382248904E-01   1.4151511075051237E-01
       2.101051   9.6185675101669726E-02  -1.1961717743803169E-01  -5.0462468386974713E-01  -8.0891983737282869E-01   1.9752236702588098E-02   6.9602901303503373E-03   1.0699862158179892E-01  -1.4215088419339908E-01
       2.126063   9.7998088514791568E-02  -1.1988646723581108E-01  -9.4891398513589797E-01  -8.5570155583412202E-02   1.7745572715860893E-02  -1.1921230468738496E-02  -1.6908957644397932E-01  -6.2380372625714900E-02
       2.151076   9.9797544131783891E-02  -1.2014394420706719E-01  -6.4033147988299777E-01   7.0462886387134716E-01   1.0661319445185141E-03  -2.1787863558854998E-02  -1.1268394370131911E-02   1.8217033402452873E-01
       2.176088   1.0158059029661370E-01  -1.2038842947759526E-01   1.7545928446523379E-01   9.3515391083069421E-01  -1.7169992666760232E-02  -1.4149853905195166E-02   1.7992806384661852E-01  -4.2079463362158294E-02
       2.201101   1.0334445012842858E-01  -1.2061846294057725E-01   8.5105155207350502E-01   4.2401757806432189E-01  -2.2025975680303653E-02   5.4190631100869673E-03  -9.3111687916118901E-02  -1.6219239719706832E-01
       2.226113   1.0508698709388052E-01  -1.2083233542408270E-01   8.5105661408846467E-01  -4.2257858882102328E-01  -8.9785306928023209E-03   2.1298671634799902E-02  -1.3013185843496022E-01   1.3737283937963615E-01
       2.251126   1.0680666244963039E-01  -1.2102812005335137E-01   1.7636817701403304E-01  -9.3304054493440636E-01   1.1937108472233969E-02   2.0290341369507171E-02   1.7089330817286080E-01   8.6181944000845875E-02
