# population in each right-qubit level over  time for $\ket{\Psi(t=0)} = \ket{01}$ (integrated over all cavity levels)
#        t [ns]            0            1            2            3            4
       0.000000  8.00176E-02  9.19982E-01  1.21602E-31  8.02607E-32  9.17257E-34
       0.025013  8.00171E-02  9.19981E-01  2.93366E-14  3.53001E-28  1.94863E-34
       0.050025  8.00166E-02  9.19979E-01  4.09272E-12  6.82375E-24  5.06450E-35
       0.075038  8.00161E-02  9.19977E-01  8.98629E-11  3.28745E-21  4.90900E-32
       0.100050  8.00156E-02  9.19975E-01  8.32742E-10  2.82044E-19  3.59111E-29
       0.125063  8.00151E-02  9.19974E-01  4.71188E-09  9.01913E-18  5.89137E-27
       0.150075  8.00146E-02  9.19972E-01  1.93911E-08  1.52525E-16  3.72341E-25
       0.175088  8.00142E-02  9.19970E-01  6.38884E-08  1.65281E-15  1.21025E-23
       0.200100  8.00138E-02  9.19968E-01  1.78618E-07  1.28929E-14  2.40911E-22
       0.225113  8.00134E-02  9.19966E-01  4.40113E-07  7.80949E-14  3.28990E-21
       0.250125  8.00132E-02  9.19963E-01  9.80920E-07  3.86928E-13  3.33176E-20
       0.275138  8.00132E-02  9.19960E-01  2.01475E-06  1.62760E-12  2.64551E-19
       0.300150  8.00136E-02  9.19956E-01  3.86647E-06  5.97511E-12  1.71620E-18
       0.325163  8.00146E-02  9.19949E-01  7.00594E-06  1.95491E-11  9.38471E-18
       0.350175  8.00166E-02  9.19940E-01  1.20842E-05  5.79388E-11  4.43214E-17
       0.375188  8.00198E-02  9.19927E-01  1.99700E-05  1.57576E-10  1.84286E-16
       0.400200  8.00250E-02  9.19907E-01  3.17841E-05  3.97386E-10  6.85125E-16
       0.425213  8.00327E-02  9.19880E-01  4.89289E-05  9.37206E-10  2.30634E-15
       0.450225  8.00438E-02  9.19842E-01  7.31100E-05  2.08169E-09  7.10353E-15
       0.475238  8.00593E-02  9.19791E-01  1.06347E-04  4.38045E-09  2.01928E-14
       0.500250  8.00804E-02  9.19723E-01  1.50971E-04  8.77613E-09  5.33667E-14
       0.525263  8.01084E-02  9.19634E-01  2.09609E-04  1.68117E-08  1.31945E-13
       0.550275  8.01448E-02  9.19520E-01  2.85142E-04  3.09049E-08  3.06813E-13
       0.575288  8.01912E-02  9.19375E-01  3.80661E-04  5.46912E-08  6.74070E-13
       0.600300  8.02495E-02  9.19196E-01  4.99390E-04  9.34269E-08  1.40478E-12
       0.625313  8.03213E-02  9.18976E-01  6.44598E-04  1.54431E-07  2.78667E-12
       0.650325  8.04086E-02  9.18711E-01  8.19502E-04  2.47526E-07  5.27785E-12
       0.675338  8.05132E-02  9.18396E-01  1.02715E-03  3.85431E-07  9.56932E-12
       0.700350  8.06369E-02  9.18026E-01  1.27031E-03  5.84029E-07  1.66491E-11
       0.725363  8.07812E-02  9.17598E-01  1.55133E-03  8.62450E-07  2.78552E-11
       0.750375  8.09476E-02  9.17107E-01  1.87207E-03  1.24288E-06  4.49014E-11
       0.775388  8.11374E-02  9.16552E-01  2.23375E-03  1.75005E-06  6.98571E-11
       0.800400  8.13514E-02  9.15931E-01  2.63689E-03  2.41037E-06  1.05064E-10
       0.825413  8.15903E-02  9.15244E-01  3.08128E-03  3.25069E-06  1.52982E-10
       0.850425  8.18543E-02  9.14491E-01  3.56590E-03  4.29672E-06  2.15965E-10
       0.875438  8.21433E-02  9.13675E-01  4.08894E-03  5.57127E-06  2.95980E-10
       0.900450  8.24569E-02  9.12798E-01  4.64785E-03  7.09234E-06  3.94307E-10
       0.925463  8.27941E-02  9.11864E-01  5.23936E-03  8.87123E-06  5.11250E-10
       0.950475  8.31540E-02  9.10879E-01  5.85955E-03  1.09109E-05  6.45913E-10
       0.975488  8.35351E-02  9.09848E-01  6.50401E-03  1.32044E-05  7.96073E-10
       1.000500  8.39357E-02  9.08778E-01  7.16787E-03  1.57347E-05  9.58172E-10
       1.025513  8.43539E-02  9.07675E-01  7.84595E-03  1.84733E-05  1.12745E-09
       1.050525  8.47876E-02  9.06549E-01  8.53287E-03  2.13815E-05  1.29822E-09
       1.075538  8.52347E-02  9.05405E-01  9.22314E-03  2.44109E-05  1.46419E-09
       1.100550  8.56928E-02  9.04253E-01  9.91129E-03  2.75049E-05  1.61894E-09
       1.125563  8.61597E-02  9.03099E-01  1.05920E-02  3.06003E-05  1.75633E-09
       1.150575  8.66328E-02  9.01952E-01  1.12599E-02  3.36303E-05  1.87095E-09
       1.175588  8.71100E-02  9.00819E-01  1.19103E-02  3.65263E-05  1.95851E-09
       1.200600  8.75890E-02  8.99706E-01  1.25385E-02  3.92210E-05  2.01608E-09
       1.225613  8.80675E-02  8.98620E-01  1.31404E-02  4.16505E-05  2.04227E-09
       1.250625  8.85435E-02  8.97568E-01  1.37120E-02  4.37570E-05  2.03729E-09
       1.275638  8.90152E-02  8.96553E-01  1.42503E-02  4.54911E-05  2.00279E-09
       1.300650  8.94809E-02  8.95582E-01  1.47522E-02  4.68128E-05  1.94173E-09
       1.325663  8.99391E-02  8.94656E-01  1.52157E-02  4.76933E-05  1.85805E-09
       1.350675  9.03885E-02  8.93781E-01  1.56389E-02  4.81156E-05  1.75631E-09
       1.375688  9.08282E-02  8.92957E-01  1.60205E-02  4.80744E-05  1.64138E-09
       1.400700  9.12574E-02  8.92186E-01  1.63600E-02  4.75762E-05  1.51806E-09
       1.425713  9.16756E-02  8.91469E-01  1.66568E-02  4.66382E-05  1.39080E-09
       1.450725  9.20826E-02  8.90807E-01  1.69114E-02  4.52872E-05  1.26348E-09
       1.475738  9.24785E-02  8.90197E-01  1.71240E-02  4.35583E-05  1.13930E-09
       1.500750  9.28633E-02  8.89640E-01  1.72958E-02  4.14933E-05  1.02064E-09
       1.525763  9.32377E-02  8.89134E-01  1.74277E-02  3.91391E-05  9.09164E-10
       1.550775  9.36022E-02  8.88676E-01  1.75212E-02  3.65457E-05  8.05828E-10
       1.575788  9.39577E-02  8.88264E-01  1.75777E-02  3.37653E-05  7.11001E-10
       1.600800  9.43051E-02  8.87896E-01  1.75989E-02  3.08507E-05  6.24587E-10
       1.625813  9.46455E-02  8.87569E-01  1.75866E-02  2.78540E-05  5.46161E-10
       1.650825  9.49799E-02  8.87279E-01  1.75423E-02  2.48260E-05  4.75086E-10
       1.675838  9.53097E-02  8.87024E-01  1.74678E-02  2.18157E-05  4.10629E-10
       1.700850  9.56359E-02  8.86802E-01  1.73647E-02  1.88691E-05  3.52052E-10
       1.725863  9.59599E-02  8.86608E-01  1.72346E-02  1.60296E-05  2.98687E-10
       1.750875  9.62829E-02  8.86441E-01  1.70789E-02  1.33376E-05  2.49987E-10
       1.775888  9.66059E-02  8.86298E-01  1.68989E-02  1.08301E-05  2.05573E-10
       1.800900  9.69301E-02  8.86177E-01  1.66959E-02  8.54079E-06  1.65243E-10
       1.825913  9.72566E-02  8.86075E-01  1.64712E-02  6.50008E-06  1.28990E-10
       1.850925  9.75864E-02  8.85990E-01  1.62258E-02  4.73463E-06  9.69847E-11
       1.875938  9.79202E-02  8.85920E-01  1.59606E-02  3.26737E-06  6.95615E-11
       1.900950  9.82589E-02  8.85864E-01  1.56766E-02  2.11718E-06  4.71844E-11
       1.925963  9.86031E-02  8.85820E-01  1.53748E-02  1.29866E-06  3.04065E-11
       1.950975  9.89533E-02  8.85787E-01  1.50560E-02  8.21712E-07  1.98222E-11
       1.975988  9.93101E-02  8.85763E-01  1.47210E-02  6.91307E-07  1.60152E-11
       2.001001  9.96738E-02  8.85747E-01  1.43707E-02  9.07110E-07  1.95058E-11
       2.026013  1.00045E-01  8.85738E-01  1.40059E-02  1.46325E-06  3.07004E-11
       2.051026  1.00423E-01  8.85734E-01  1.36276E-02  2.34812E-06  4.98487E-11
       2.076038  1.00808E-01  8.85736E-01  1.32368E-02  3.54440E-06  7.70102E-11
       2.101051  1.01201E-01  8.85742E-01  1.28344E-02  5.02913E-06  1.12033E-10
       2.126063  1.01600E-01  8.85751E-01  1.24216E-02  6.77401E-06  1.54545E-10
       2.151076  1.02007E-01  8.85762E-01  1.19994E-02  8.74592E-06  2.03957E-10
       2.176088  1.02421E-01  8.85774E-01  1.15691E-02  1.09075E-05  2.59482E-10
       2.201101  1.02841E-01  8.85786E-01  1.11320E-02  1.32178E-05  3.20154E-10
       2.226113  1.03268E-01  8.85797E-01  1.06894E-02  1.56335E-05  3.84870E-10
       2.251126  1.03701E-01  8.85806E-01  1.02427E-02  1.81098E-05  4.52424E-10
       2.276138  1.04139E-01  8.85812E-01  9.79327E-03  2.06013E-05  5.21552E-10
       2.301151  1.04582E-01  8.85814E-01  9.34265E-03  2.30634E-05  5.90979E-10
       2.326163  1.05031E-01  8.85811E-01  8.89233E-03  2.54534E-05  6.59455E-10
       2.351176  1.05484E-01  8.85801E-01  8.44386E-03  2.77313E-05  7.25799E-10
       2.376188  1.05941E-01  8.85785E-01  7.99878E-03  2.98614E-05  7.88932E-10
       2.401201  1.06402E-01  8.85759E-01  7.55868E-03  3.18122E-05  8.47905E-10
       2.426213  1.06867E-01  8.85724E-01  7.12514E-03  3.35582E-05  9.01918E-10
       2.451226  1.07334E-01  8.85678E-01  6.69973E-03  3.50795E-05  9.50342E-10
       2.476238  1.07805E-01  8.85619E-01  6.28403E-03  3.63627E-05  9.92720E-10
       2.501251  1.08278E-01  8.85547E-01  5.87962E-03  3.74006E-05  1.02878E-09
       2.526263  1.08753E-01  8.85460E-01  5.48805E-03  3.81927E-05  1.05843E-09
       2.551276  1.09230E-01  8.85357E-01  5.11087E-03  3.87440E-05  1.08174E-09
       2.576288  1.09708E-01  8.85237E-01  4.74961E-03  3.90655E-05  1.09897E-09
       2.601301  1.10188E-01  8.85098E-01  4.40578E-03  3.91728E-05  1.11049E-09
       2.626313  1.10670E-01  8.84939E-01  4.08087E-03  3.90857E-05  1.11684E-09
       2.651326  1.11152E-01  8.84759E-01  3.77636E-03  3.88270E-05  1.11867E-09
       2.676338  1.11635E-01  8.84557E-01  3.49369E-03  3.84217E-05  1.11669E-09
       2.701351  1.12118E-01  8.84331E-01  3.23428E-03  3.78957E-05  1.11170E-09
       2.726363  1.12601E-01  8.84081E-01  2.99951E-03  3.72748E-05  1.10454E-09
       2.751376  1.13084E-01  8.83805E-01  2.79072E-03  3.65837E-05  1.09603E-09
       2.776388  1.13566E-01  8.83502E-01  2.60919E-03  3.58448E-05  1.08697E-09
       2.801401  1.14047E-01  8.83172E-01  2.45618E-03  3.50774E-05  1.07807E-09
       2.826413  1.14527E-01  8.82814E-01  2.33283E-03  3.42969E-05  1.06994E-09
       2.851426  1.15005E-01  8.82427E-01  2.24023E-03  3.35139E-05  1.06305E-09
       2.876438  1.15481E-01  8.82010E-01  2.17937E-03  3.27344E-05  1.05768E-09
       2.901451  1.15953E-01  8.81564E-01  2.15112E-03  3.19589E-05  1.05389E-09
       2.926463  1.16422E-01  8.81088E-01  2.15622E-03  3.11833E-05  1.05152E-09
       2.951476  1.16887E-01  8.80582E-01  2.19528E-03  3.03983E-05  1.05016E-09
       2.976488  1.17347E-01  8.80047E-01  2.26875E-03  2.95911E-05  1.04919E-09
       3.001501  1.17801E-01  8.79483E-01  2.37688E-03  2.87452E-05  1.04773E-09
       3.026513  1.18248E-01  8.78891E-01  2.51976E-03  2.78426E-05  1.04476E-09
       3.051526  1.18688E-01  8.78272E-01  2.69725E-03  2.68642E-05  1.03910E-09
       3.076538  1.19120E-01  8.77626E-01  2.90903E-03  2.57916E-05  1.02950E-09
       3.101551  1.19543E-01  8.76956E-01  3.15453E-03  2.46089E-05  1.01471E-09
       3.126563  1.19956E-01  8.76264E-01  3.43295E-03  2.33038E-05  9.93561E-10
       3.151576  1.20358E-01  8.75550E-01  3.74327E-03  2.18691E-05  9.65062E-10
       3.176588  1.20747E-01  8.74818E-01  4.08423E-03  2.03043E-05  9.28452E-10
       3.201601  1.21124E-01  8.74070E-01  4.45435E-03  1.86166E-05  8.83293E-10
       3.226613  1.21487E-01  8.73309E-01  4.85192E-03  1.68214E-05  8.29527E-10
       3.251626  1.21836E-01  8.72537E-01  5.27501E-03  1.49432E-05  7.67525E-10
       3.276638  1.22169E-01  8.71757E-01  5.72150E-03  1.30152E-05  6.98112E-10
       3.301651  1.22485E-01  8.70972E-01  6.18908E-03  1.10796E-05  6.22581E-10
       3.326663  1.22784E-01  8.70186E-01  6.67529E-03  9.18610E-06  5.42683E-10
       3.351676  1.23065E-01  8.69402E-01  7.17749E-03  7.39128E-06  4.60598E-10
       3.376688  1.23327E-01  8.68623E-01  7.69297E-03  5.75678E-06  3.78893E-10
       3.401701  1.23570E-01  8.67852E-01  8.21888E-03  4.34748E-06  3.00471E-10
       3.426713  1.23794E-01  8.67094E-01  8.75232E-03  3.22935E-06  2.28497E-10
       3.451726  1.23997E-01  8.66351E-01  9.29035E-03  2.46708E-06  1.66331E-10
       3.476738  1.24179E-01  8.65626E-01  9.83002E-03  2.12167E-06  1.17447E-10
       3.501751  1.24341E-01  8.64923E-01  1.03684E-02  2.24798E-06  8.53511E-11
       3.526763  1.24482E-01  8.64245E-01  1.09025E-02  2.89238E-06  7.34915E-11
       3.551776  1.24601E-01  8.63594E-01  1.14296E-02  4.09058E-06  8.51735E-11
       3.576788  1.24700E-01  8.62973E-01  1.19469E-02  5.86583E-06  1.23463E-10
       3.601801  1.24778E-01  8.62386E-01  1.24518E-02  8.22730E-06  1.91092E-10
       3.626813  1.24835E-01  8.61833E-01  1.29417E-02  1.11691E-05  2.90353E-10
       3.651826  1.24872E-01  8.61317E-01  1.34143E-02  1.46696E-05  4.22996E-10
       3.676838  1.24889E-01  8.60839E-01  1.38674E-02  1.86913E-05  5.90124E-10
       3.701851  1.24887E-01  8.60403E-01  1.42990E-02  2.31812E-05  7.92086E-10
       3.726863  1.24867E-01  8.60007E-01  1.47072E-02  2.80720E-05  1.02838E-09
       3.751876  1.24828E-01  8.59655E-01  1.50904E-02  3.32829E-05  1.29755E-09
       3.776888  1.24772E-01  8.59345E-01  1.54471E-02  3.87220E-05  1.59716E-09
       3.801901  1.24700E-01  8.59080E-01  1.57759E-02  4.42881E-05  1.92370E-09
       3.826913  1.24613E-01  8.58859E-01  1.60759E-02  4.98735E-05  2.27262E-09
       3.851926  1.24510E-01  8.58682E-01  1.63462E-02  5.53667E-05  2.63833E-09
       3.876938  1.24395E-01  8.58550E-01  1.65859E-02  6.06551E-05  3.01431E-09
       3.901951  1.24267E-01  8.58462E-01  1.67945E-02  6.56282E-05  3.39321E-09
       3.926963  1.24127E-01  8.58417E-01  1.69717E-02  7.01805E-05  3.76704E-09
       3.951976  1.23977E-01  8.58414E-01  1.71172E-02  7.42145E-05  4.12736E-09
       3.976988  1.23817E-01  8.58454E-01  1.72309E-02  7.76431E-05  4.46560E-09
       4.002001  1.23649E-01  8.58534E-01  1.73129E-02  8.03918E-05  4.77329E-09
       4.027014  1.23473E-01  8.58654E-01  1.73635E-02  8.24013E-05  5.04241E-09
       4.052026  1.23291E-01  8.58813E-01  1.73828E-02  8.36282E-05  5.26568E-09
       4.077039  1.23103E-01  8.59009E-01  1.73713E-02  8.40469E-05  5.43685E-09
       4.102051  1.22911E-01  8.59240E-01  1.73296E-02  8.36497E-05  5.55097E-09
       4.127064  1.22714E-01  8.59506E-01  1.72582E-02  8.24468E-05  5.60462E-09
       4.152076  1.22514E-01  8.59805E-01  1.71579E-02  8.04661E-05  5.59603E-09
       4.177089  1.22311E-01  8.60136E-01  1.70293E-02  7.77523E-05  5.52516E-09
       4.202101  1.22107E-01  8.60497E-01  1.68734E-02  7.43653E-05  5.39376E-09
       4.227114  1.21901E-01  8.60886E-01  1.66909E-02  7.03785E-05  5.20522E-09
       4.252126  1.21693E-01  8.61303E-01  1.64828E-02  6.58769E-05  4.96449E-09
       4.277139  1.21485E-01  8.61746E-01  1.62500E-02  6.09547E-05  4.67787E-09
       4.302151  1.21276E-01  8.62213E-01  1.59935E-02  5.57128E-05  4.35273E-09
       4.327164  1.21067E-01  8.62704E-01  1.57142E-02  5.02566E-05  3.99729E-09
       4.352176  1.20858E-01  8.63217E-01  1.54133E-02  4.46927E-05  3.62029E-09
       4.377189  1.20648E-01  8.63751E-01  1.50916E-02  3.91274E-05  3.23072E-09
       4.402201  1.20437E-01  8.64305E-01  1.47503E-02  3.36635E-05  2.83753E-09
       4.427214  1.20226E-01  8.64878E-01  1.43905E-02  2.83985E-05  2.44938E-09
       4.452226  1.20014E-01  8.65469E-01  1.40132E-02  2.34222E-05  2.07439E-09
       4.477239  1.19801E-01  8.66078E-01  1.36196E-02  1.88153E-05  1.71999E-09
       4.502251  1.19586E-01  8.66702E-01  1.32109E-02  1.46477E-05  1.39268E-09
       4.527264  1.19370E-01  8.67341E-01  1.27883E-02  1.09768E-05  1.09796E-09
       4.552276  1.19152E-01  8.67994E-01  1.23532E-02  7.84691E-06  8.40206E-10
       4.577289  1.18931E-01  8.68661E-01  1.19068E-02  5.28857E-06  6.22624E-10
       4.602301  1.18708E-01  8.69340E-01  1.14505E-02  3.31793E-06  4.47183E-10
       4.627314  1.18481E-01  8.70029E-01  1.09858E-02  1.93684E-06  3.14633E-10
       4.652326  1.18251E-01  8.70729E-01  1.05143E-02  1.13322E-06  2.24524E-10
       4.677339  1.18017E-01  8.71437E-01  1.00375E-02  8.81656E-07  1.75255E-10
       4.702351  1.17778E-01  8.72152E-01  9.55698E-03  1.14448E-06  1.64156E-10
       4.727364  1.17535E-01  8.72874E-01  9.07455E-03  1.87306E-06  1.87599E-10
       4.752376  1.17288E-01  8.73600E-01  8.59190E-03  3.00947E-06  2.41132E-10
       4.777389  1.17035E-01  8.74329E-01  8.11078E-03  4.48832E-06  3.19639E-10
       4.802401  1.16777E-01  8.75059E-01  7.63298E-03  6.23885E-06  4.17522E-10
       4.827414  1.16514E-01  8.75790E-01  7.16026E-03  8.18713E-06  5.28899E-10
       4.852426  1.16246E-01  8.76519E-01  6.69439E-03  1.02582E-05  6.47810E-10
       4.877439  1.15971E-01  8.77246E-01  6.23711E-03  1.23786E-05  7.68426E-10
       4.902451  1.15691E-01  8.77968E-01  5.79010E-03  1.44779E-05  8.85255E-10
       4.927464  1.15405E-01  8.78684E-01  5.35497E-03  1.64914E-05  9.93329E-10
       4.952476  1.15114E-01  8.79392E-01  4.93329E-03  1.83613E-05  1.08837E-09
       4.977489  1.14816E-01  8.80092E-01  4.52651E-03  2.00384E-05  1.16694E-09
       5.002501  1.14512E-01  8.80781E-01  4.13601E-03  2.14831E-05  1.22650E-09
       5.027514  1.14203E-01  8.81460E-01  3.76302E-03  2.26662E-05  1.26551E-09
       5.052526  1.13887E-01  8.82126E-01  3.40871E-03  2.35694E-05  1.28342E-09
       5.077539  1.13565E-01  8.82779E-01  3.07409E-03  2.41853E-05  1.28066E-09
       5.102551  1.13237E-01  8.83417E-01  2.76007E-03  2.45168E-05  1.25853E-09
       5.127564  1.12902E-01  8.84041E-01  2.46743E-03  2.45768E-05  1.21912E-09
       5.152576  1.12561E-01  8.84650E-01  2.19683E-03  2.43870E-05  1.16519E-09
       5.177589  1.12214E-01  8.85243E-01  1.94880E-03  2.39768E-05  1.09996E-09
       5.202601  1.11859E-01  8.85820E-01  1.72376E-03  2.33817E-05  1.02698E-09
       5.227614  1.11498E-01  8.86380E-01  1.52203E-03  2.26420E-05  9.49931E-10
       5.252626  1.11130E-01  8.86925E-01  1.34379E-03  2.18007E-05  8.72444E-10
       5.277639  1.10754E-01  8.87452E-01  1.18912E-03  2.09020E-05  7.97958E-10
       5.302651  1.10372E-01  8.87964E-01  1.05802E-03  1.99897E-05  7.29563E-10
       5.327664  1.09981E-01  8.88460E-01  9.50359E-04  1.91054E-05  6.69883E-10
       5.352676  1.09584E-01  8.88940E-01  8.65926E-04  1.82868E-05  6.20987E-10
       5.377689  1.09178E-01  8.89405E-01  8.04415E-04  1.75668E-05  5.84322E-10
       5.402701  1.08764E-01  8.89855E-01  7.65429E-04  1.69719E-05  5.60693E-10
       5.427714  1.08342E-01  8.90292E-01  7.48480E-04  1.65218E-05  5.50253E-10
       5.452726  1.07912E-01  8.90714E-01  7.52996E-04  1.62285E-05  5.52541E-10
       5.477739  1.07474E-01  8.91124E-01  7.78314E-04  1.60963E-05  5.66528E-10
       5.502751  1.07028E-01  8.91522E-01  8.23690E-04  1.61216E-05  5.90697E-10
       5.527764  1.06573E-01  8.91909E-01  8.88290E-04  1.62935E-05  6.23131E-10
       5.552776  1.06111E-01  8.92285E-01  9.71199E-04  1.65943E-05  6.61622E-10
       5.577789  1.05640E-01  8.92652E-01  1.07141E-03  1.70007E-05  7.03782E-10
       5.602801  1.05162E-01  8.93010E-01  1.18785E-03  1.74845E-05  7.47164E-10
       5.627814  1.04676E-01  8.93361E-01  1.31934E-03  1.80145E-05  7.89375E-10
       5.652826  1.04184E-01  8.93705E-01  1.46463E-03  1.85575E-05  8.28192E-10
       5.677839  1.03684E-01  8.94044E-01  1.62240E-03  1.90802E-05  8.61665E-10
       5.702851  1.03177E-01  8.94378E-01  1.79124E-03  1.95505E-05  8.88209E-10
       5.727864  1.02664E-01  8.94709E-01  1.96969E-03  1.99391E-05  9.06678E-10
       5.752876  1.02146E-01  8.95038E-01  2.15621E-03  2.02205E-05  9.16416E-10
       5.777889  1.01621E-01  8.95366E-01  2.34923E-03  2.03746E-05  9.17292E-10
       5.802901  1.01092E-01  8.95694E-01  2.54711E-03  2.03873E-05  9.09701E-10
       5.827914  1.00559E-01  8.96024E-01  2.74819E-03  2.02513E-05  8.94542E-10
       5.852926  1.00021E-01  8.96356E-01  2.95079E-03  1.99661E-05  8.73165E-10
       5.877939  9.94797E-02  8.96693E-01  3.15321E-03  1.95384E-05  8.47302E-10
       5.902951  9.89352E-02  8.97034E-01  3.35379E-03  1.89817E-05  8.18963E-10
       5.927964  9.83880E-02  8.97382E-01  3.55085E-03  1.83156E-05  7.90321E-10
       5.952976  9.78384E-02  8.97737E-01  3.74279E-03  1.75651E-05  7.63591E-10
       5.977989  9.72870E-02  8.98101E-01  3.92804E-03  1.67598E-05  7.40899E-10
       6.003002  9.67339E-02  8.98475E-01  4.10511E-03  1.59321E-05  7.24158E-10
       6.028014  9.61797E-02  8.98860E-01  4.27259E-03  1.51167E-05  7.14961E-10
       6.053027  9.56246E-02  8.99256E-01  4.42920E-03  1.43486E-05  7.14493E-10
       6.078039  9.50688E-02  8.99665E-01  4.57376E-03  1.36622E-05  7.23476E-10
